Data from coltest_Reflection_005.txt Node
Date: Mon Feb 02 14:05:51 EST 2015
User: jamesohanlon
Spectrometer: JAZA0776
Autoset integration time: false
Trigger mode: 0
Integration Time (sec): 1.000000E-1
Scans to average: 10
Electric dark correction enabled: true
Nonlinearity correction enabled: false
Boxcar width: 10
Stray light correction enabled: false
XAxis mode: Wavelengths
Stop averaging: false
Number of Pixels in Spectrum: 2048
>>>>>Begin Spectral Data<<<<<
190.472	73.3
190.851	69.59
191.23	16.89
191.609	51.46
191.988	97.83
192.366	187.16
192.745	97.31
193.124	85.19
193.503	-201.62
193.882	1112.5
194.26	5860
194.639	-3.49
195.018	50.16
195.397	104.1
195.775	84.81
196.154	126.43
196.532	77.24
196.911	85.66
197.29	70.55
197.668	59.7
198.047	57.85
198.425	54.27
198.803	59.08
199.182	57.85
199.56	51.43
199.939	35.44
200.317	37.42
200.695	34.1
201.074	38.25
201.452	30.01
201.83	26.09
202.208	29.21
202.587	27.54
202.965	28.87
203.343	32.42
203.721	23.71
204.099	28.73
204.477	23.2
204.855	16.25
205.233	12.42
205.611	8.41
205.989	6.48
206.367	-0.68
206.745	-4.47
207.123	-1.86
207.501	-5.25
207.879	-4.73
208.257	-4.55
208.635	-0.19
209.012	2.76
209.39	3.34
209.768	7.47
210.146	3
210.523	2.66
210.901	2.8
211.278	1.68
211.656	1.09
212.034	-1.01
212.411	-4.18
212.789	-5.49
213.166	-0.67
213.544	2.97
213.921	2.5
214.299	2.31
214.676	3.49
215.053	6.49
215.431	11.17
215.808	12.03
216.185	19.21
216.563	21.47
216.94	19.24
217.317	21.64
217.694	22.71
218.072	23.54
218.449	24.77
218.826	24.26
219.203	24.75
219.58	27.78
219.957	29.79
220.334	33.19
220.711	35.39
221.088	34.9
221.465	33.27
221.842	31.67
222.219	32.67
222.596	29.27
222.973	27.41
223.349	27.09
223.726	27.15
224.103	25.87
224.48	22.99
224.856	23.21
225.233	20.27
225.61	19.67
225.986	20.61
226.363	20.43
226.74	20.86
227.116	21.37
227.493	21.97
227.869	21.88
228.246	21.72
228.622	21.81
228.999	21.87
229.375	21.96
229.751	22.23
230.128	22.53
230.504	22.41
230.88	22.41
231.257	21.91
231.633	21.82
232.009	21.52
232.385	21.65
232.761	21.4
233.138	21.86
233.514	21.68
233.89	21.57
234.266	21.99
234.642	21.42
235.018	21.1
235.394	20.46
235.77	20.14
236.146	19.97
236.522	19.89
236.898	19.24
237.274	18.84
237.649	18.48
238.025	17.98
238.401	18.11
238.777	17.98
239.152	17.77
239.528	17.6
239.904	17.4
240.279	17.42
240.655	17.33
241.031	17.13
241.406	17.11
241.782	16.86
242.157	16.6
242.533	16.6
242.908	16.38
243.284	16.4
243.659	16.26
244.034	16.06
244.41	15.88
244.785	15.78
245.16	15.74
245.536	15.64
245.911	15.55
246.286	15.42
246.661	15.29
247.037	15.22
247.412	15.09
247.787	15.06
248.162	14.89
248.537	14.73
248.912	14.7
249.287	14.65
249.662	14.56
250.037	14.57
250.412	14.51
250.787	14.47
251.162	14.27
251.537	14.24
251.911	14.19
252.286	14
252.661	14.06
253.036	13.9
253.41	13.71
253.785	13.66
254.16	13.6
254.534	13.52
254.909	13.42
255.284	13.44
255.658	13.27
256.033	13.25
256.407	13.4
256.782	13.39
257.156	13.38
257.53	13.35
257.905	13.28
258.279	13.22
258.654	13.21
259.028	13.2
259.402	13.13
259.776	13.06
260.151	13.07
260.525	13.02
260.899	13
261.273	13.08
261.647	13.1
262.021	13.16
262.395	13.23
262.769	13.27
263.143	13.21
263.517	13.23
263.891	13.23
264.265	13.11
264.639	13.07
265.013	12.98
265.387	12.95
265.761	12.9
266.135	12.9
266.508	12.82
266.882	12.84
267.256	12.79
267.629	12.83
268.003	12.92
268.377	12.88
268.75	12.94
269.124	12.92
269.497	12.91
269.871	12.91
270.244	12.85
270.618	12.77
270.991	12.82
271.365	12.89
271.738	12.83
272.111	12.84
272.485	12.85
272.858	12.88
273.231	12.88
273.604	12.88
273.978	12.88
274.351	12.93
274.724	12.99
275.097	13.01
275.47	12.97
275.843	12.93
276.216	12.98
276.589	12.96
276.962	13.01
277.335	13.06
277.708	13
278.081	13.01
278.454	13.12
278.827	13.1
279.2	13.05
279.572	13.06
279.945	13.04
280.318	12.93
280.691	12.87
281.063	12.92
281.436	12.94
281.808	12.93
282.181	12.93
282.554	12.85
282.926	12.86
283.299	12.92
283.671	12.92
284.044	12.9
284.416	12.92
284.788	12.87
285.161	12.86
285.533	12.84
285.905	12.86
286.278	12.79
286.65	12.74
287.022	12.68
287.394	12.65
287.766	12.7
288.139	12.73
288.511	12.72
288.883	12.68
289.255	12.62
289.627	12.58
289.999	12.54
290.371	12.51
290.743	12.5
291.115	12.48
291.486	12.46
291.858	12.37
292.23	12.28
292.602	12.26
292.974	12.18
293.345	12.1
293.717	12.04
294.089	11.99
294.46	12.02
294.832	12.01
295.204	12.02
295.575	11.95
295.947	11.92
296.318	11.94
296.69	11.94
297.061	11.96
297.433	11.96
297.804	11.95
298.175	11.97
298.547	11.87
298.918	11.79
299.289	11.75
299.66	11.82
300.032	11.82
300.403	11.79
300.774	11.74
301.145	11.78
301.516	11.8
301.887	11.81
302.258	11.74
302.629	11.75
303	11.74
303.371	11.69
303.742	11.67
304.113	11.61
304.484	11.52
304.855	11.47
305.226	11.4
305.596	11.32
305.967	11.21
306.338	11.24
306.708	11.21
307.079	11.17
307.45	11.09
307.82	11.05
308.191	11.04
308.561	10.98
308.932	10.94
309.302	10.82
309.673	10.77
310.043	10.77
310.414	10.7
310.784	10.69
311.154	10.68
311.525	10.68
311.895	10.72
312.265	10.79
312.635	10.73
313.006	10.68
313.376	10.72
313.746	10.74
314.116	10.71
314.486	10.74
314.856	10.72
315.226	10.68
315.596	10.64
315.966	10.59
316.336	10.59
316.706	10.58
317.076	10.6
317.445	10.63
317.815	10.59
318.185	10.53
318.555	10.44
318.924	10.41
319.294	10.42
319.664	10.32
320.033	10.16
320.403	10.19
320.772	10.22
321.142	10.17
321.511	10.15
321.881	10.14
322.25	10.02
322.62	9.97
322.989	9.93
323.358	9.87
323.728	9.85
324.097	9.81
324.466	9.69
324.836	9.63
325.205	9.59
325.574	9.58
325.943	9.57
326.312	9.56
326.681	9.52
327.05	9.44
327.419	9.42
327.788	9.46
328.157	9.48
328.526	9.42
328.895	9.39
329.264	9.36
329.633	9.34
330.001	9.43
330.37	9.48
330.739	9.4
331.108	9.47
331.476	9.37
331.845	9.42
332.214	9.44
332.582	9.46
332.951	9.45
333.319	9.39
333.688	9.43
334.056	9.39
334.425	9.39
334.793	9.3
335.161	9.27
335.53	9.26
335.898	9.19
336.266	9.26
336.635	9.19
337.003	9.14
337.371	9.13
337.739	9.08
338.107	8.98
338.475	9.01
338.843	8.98
339.212	9.06
339.58	9.06
339.947	9.13
340.315	9.17
340.683	9.15
341.051	9.18
341.419	9.19
341.787	9.22
342.155	9.16
342.522	9.2
342.89	9.19
343.258	9.14
343.625	9.13
343.993	9.12
344.361	9.21
344.728	9.25
345.096	9.21
345.463	9.12
345.831	9.19
346.198	9.27
346.566	9.28
346.933	9.33
347.3	9.29
347.668	9.22
348.035	9.2
348.402	9.13
348.769	9.16
349.137	9.13
349.504	9.2
349.871	9.28
350.238	9.28
350.605	9.25
350.972	9.28
351.339	9.32
351.706	9.33
352.073	9.24
352.44	9.21
352.807	9.21
353.174	9.24
353.54	9.21
353.907	9.2
354.274	9.21
354.641	9.18
355.007	9.19
355.374	9.23
355.741	9.24
356.107	9.29
356.474	9.19
356.84	9.17
357.207	9.11
357.573	9.09
357.94	9.09
358.306	9.13
358.673	9.15
359.039	9.1
359.405	9.06
359.771	9.09
360.138	9.08
360.504	9.08
360.87	9.09
361.236	9.08
361.602	9.02
361.968	8.99
362.335	8.94
362.701	8.9
363.067	8.88
363.432	8.85
363.798	8.84
364.164	8.93
364.53	8.94
364.896	8.91
365.262	8.9
365.628	8.89
365.993	8.88
366.359	8.83
366.725	8.84
367.09	8.85
367.456	8.85
367.821	8.82
368.187	8.83
368.553	8.86
368.918	8.9
369.283	8.9
369.649	8.94
370.014	8.96
370.38	9
370.745	9.02
371.11	8.99
371.475	8.99
371.841	8.91
372.206	8.86
372.571	8.82
372.936	8.83
373.301	8.87
373.666	8.9
374.031	8.92
374.396	8.92
374.761	8.88
375.126	8.83
375.491	8.86
375.856	8.86
376.221	8.86
376.586	8.84
376.95	8.85
377.315	8.83
377.68	8.83
378.044	8.82
378.409	8.78
378.774	8.79
379.138	8.81
379.503	8.77
379.867	8.84
380.232	8.88
380.596	8.85
380.961	8.82
381.325	8.78
381.689	8.78
382.054	8.82
382.418	8.86
382.782	8.89
383.146	8.89
383.51	8.83
383.875	8.83
384.239	8.76
384.603	8.74
384.967	8.73
385.331	8.78
385.695	8.8
386.059	8.83
386.423	8.89
386.786	8.86
387.15	8.9
387.514	8.87
387.878	8.84
388.242	8.89
388.605	8.9
388.969	8.89
389.333	8.87
389.696	8.84
390.06	8.81
390.423	8.83
390.787	8.8
391.15	8.84
391.514	8.85
391.877	8.92
392.241	8.95
392.604	8.97
392.967	8.91
393.331	8.89
393.694	8.85
394.057	8.79
394.42	8.79
394.783	8.79
395.146	8.77
395.51	8.77
395.873	8.74
396.236	8.73
396.599	8.73
396.962	8.76
397.324	8.75
397.687	8.77
398.05	8.73
398.413	8.78
398.776	8.79
399.138	8.74
399.501	8.7
399.864	8.63
400.227	8.62
400.589	8.65
400.952	8.63
401.314	8.69
401.677	8.69
402.039	8.74
402.402	8.78
402.764	8.8
403.126	8.82
403.489	8.8
403.851	8.79
404.213	8.75
404.576	8.73
404.938	8.74
405.3	8.74
405.662	8.76
406.024	8.74
406.386	8.74
406.748	8.76
407.11	8.79
407.472	8.86
407.834	8.82
408.196	8.79
408.558	8.82
408.92	8.78
409.282	8.79
409.643	8.73
410.005	8.69
410.367	8.68
410.728	8.7
411.09	8.74
411.452	8.81
411.813	8.84
412.175	8.84
412.536	8.81
412.898	8.86
413.259	8.85
413.62	8.84
413.982	8.85
414.343	8.86
414.704	8.87
415.066	8.83
415.427	8.86
415.788	8.91
416.149	8.9
416.51	8.93
416.871	8.92
417.232	8.96
417.593	8.97
417.954	8.97
418.315	8.98
418.676	8.96
419.037	8.94
419.398	8.96
419.759	8.97
420.119	8.98
420.48	8.97
420.841	8.95
421.201	8.94
421.562	8.93
421.923	8.92
422.283	8.91
422.644	8.93
423.004	8.92
423.365	8.91
423.725	8.94
424.086	8.93
424.446	8.95
424.806	8.95
425.166	8.98
425.527	9.01
425.887	9
426.247	9
426.607	9
426.967	8.97
427.327	8.96
427.687	8.97
428.047	8.95
428.407	8.98
428.767	9
429.127	9.02
429.487	9.06
429.847	9.07
430.207	9.08
430.566	9.05
430.926	9.06
431.286	9.04
431.645	9.03
432.005	9
432.365	8.99
432.724	8.96
433.084	8.96
433.443	8.96
433.803	8.98
434.162	8.95
434.521	8.96
434.881	8.96
435.24	9
435.599	9
435.958	8.99
436.318	8.98
436.677	8.99
437.036	8.95
437.395	8.92
437.754	8.9
438.113	8.93
438.472	8.94
438.831	8.95
439.19	8.99
439.549	9.03
439.908	9.03
440.266	9.04
440.625	9.05
440.984	9.07
441.343	9.08
441.701	9.11
442.06	9.11
442.418	9.12
442.777	9.08
443.136	9.11
443.494	9.13
443.852	9.15
444.211	9.15
444.569	9.17
444.928	9.19
445.286	9.21
445.644	9.2
446.002	9.2
446.361	9.21
446.719	9.19
447.077	9.18
447.435	9.18
447.793	9.15
448.151	9.14
448.509	9.13
448.867	9.12
449.225	9.11
449.583	9.13
449.94	9.13
450.298	9.13
450.656	9.11
451.014	9.11
451.371	9.12
451.729	9.12
452.087	9.15
452.444	9.19
452.802	9.22
453.159	9.25
453.517	9.26
453.874	9.26
454.232	9.3
454.589	9.31
454.946	9.32
455.304	9.35
455.661	9.34
456.018	9.36
456.375	9.36
456.732	9.37
457.09	9.36
457.447	9.37
457.804	9.38
458.161	9.4
458.518	9.41
458.875	9.42
459.231	9.44
459.588	9.42
459.945	9.4
460.302	9.37
460.659	9.37
461.015	9.35
461.372	9.33
461.729	9.31
462.085	9.3
462.442	9.32
462.798	9.31
463.155	9.34
463.511	9.34
463.868	9.34
464.224	9.36
464.58	9.38
464.937	9.36
465.293	9.4
465.649	9.39
466.005	9.37
466.362	9.37
466.718	9.35
467.074	9.37
467.43	9.39
467.786	9.44
468.142	9.44
468.498	9.43
468.854	9.43
469.21	9.44
469.565	9.43
469.921	9.36
470.277	9.36
470.633	9.37
470.988	9.38
471.344	9.39
471.7	9.42
472.055	9.39
472.411	9.41
472.766	9.37
473.122	9.37
473.477	9.37
473.832	9.37
474.188	9.37
474.543	9.34
474.898	9.33
475.254	9.31
475.609	9.3
475.964	9.29
476.319	9.29
476.674	9.29
477.029	9.3
477.384	9.34
477.739	9.33
478.094	9.29
478.449	9.27
478.804	9.28
479.159	9.28
479.513	9.29
479.868	9.28
480.223	9.27
480.578	9.27
480.932	9.28
481.287	9.3
481.641	9.3
481.996	9.33
482.35	9.32
482.705	9.31
483.059	9.32
483.414	9.33
483.768	9.33
484.122	9.35
484.477	9.36
484.831	9.37
485.185	9.39
485.539	9.41
485.893	9.43
486.247	9.44
486.601	9.44
486.955	9.45
487.309	9.46
487.663	9.47
488.017	9.49
488.371	9.48
488.725	9.47
489.078	9.48
489.432	9.48
489.786	9.48
490.14	9.5
490.493	9.51
490.847	9.53
491.2	9.54
491.554	9.54
491.907	9.55
492.261	9.53
492.614	9.51
492.967	9.49
493.321	9.49
493.674	9.48
494.027	9.49
494.38	9.49
494.734	9.52
495.087	9.56
495.44	9.59
495.793	9.63
496.146	9.66
496.499	9.68
496.852	9.68
497.205	9.69
497.558	9.69
497.91	9.7
498.263	9.69
498.616	9.7
498.969	9.71
499.321	9.73
499.674	9.78
500.027	9.8
500.379	9.82
500.732	9.82
501.084	9.82
501.436	9.81
501.789	9.82
502.141	9.81
502.494	9.8
502.846	9.81
503.198	9.8
503.55	9.78
503.902	9.76
504.255	9.79
504.607	9.83
504.959	9.83
505.311	9.86
505.663	9.86
506.015	9.84
506.367	9.86
506.718	9.86
507.07	9.84
507.422	9.84
507.774	9.85
508.125	9.86
508.477	9.88
508.829	9.9
509.18	9.9
509.532	9.92
509.883	9.94
510.235	9.94
510.586	9.95
510.938	9.97
511.289	9.97
511.64	9.96
511.992	9.94
512.343	9.94
512.694	9.95
513.045	9.95
513.396	9.98
513.747	9.96
514.098	9.96
514.449	9.96
514.8	9.98
515.151	9.97
515.502	9.97
515.853	9.97
516.204	9.96
516.555	9.98
516.905	9.97
517.256	9.96
517.607	9.98
517.957	10
518.308	10
518.658	10.03
519.009	10.04
519.359	10.06
519.71	10.06
520.06	10.06
520.41	10.06
520.761	10.07
521.111	10.1
521.461	10.14
521.811	10.16
522.162	10.16
522.512	10.18
522.862	10.18
523.212	10.2
523.562	10.21
523.912	10.2
524.262	10.21
524.611	10.23
524.961	10.21
525.311	10.2
525.661	10.19
526.01	10.2
526.36	10.23
526.71	10.23
527.059	10.25
527.409	10.26
527.758	10.27
528.108	10.27
528.457	10.26
528.807	10.25
529.156	10.26
529.505	10.26
529.855	10.27
530.204	10.29
530.553	10.29
530.902	10.3
531.251	10.31
531.6	10.32
531.949	10.33
532.298	10.36
532.647	10.39
532.996	10.42
533.345	10.43
533.694	10.43
534.043	10.46
534.391	10.47
534.74	10.5
535.089	10.51
535.437	10.54
535.786	10.57
536.135	10.6
536.483	10.62
536.832	10.67
537.18	10.69
537.528	10.7
537.877	10.73
538.225	10.73
538.573	10.74
538.921	10.77
539.27	10.79
539.618	10.8
539.966	10.82
540.314	10.83
540.662	10.87
541.01	10.89
541.358	10.88
541.706	10.88
542.054	10.89
542.402	10.93
542.749	10.94
543.097	10.95
543.445	10.96
543.792	10.99
544.14	11.02
544.488	11.05
544.835	11.1
545.183	11.11
545.53	11.19
545.878	11.24
546.225	11.28
546.572	11.3
546.92	11.33
547.267	11.36
547.614	11.41
547.961	11.43
548.308	11.48
548.655	11.54
549.002	11.56
549.349	11.6
549.696	11.63
550.043	11.69
550.39	11.74
550.737	11.79
551.084	11.84
551.431	11.86
551.777	11.92
552.124	11.95
552.471	12.03
552.817	12.06
553.164	12.12
553.51	12.17
553.857	12.24
554.203	12.31
554.55	12.38
554.896	12.44
555.242	12.49
555.589	12.53
555.935	12.6
556.281	12.69
556.627	12.76
556.973	12.83
557.319	12.85
557.665	12.93
558.011	12.96
558.357	13.04
558.703	13.1
559.049	13.19
559.395	13.26
559.741	13.3
560.086	13.39
560.432	13.43
560.778	13.51
561.123	13.61
561.469	13.7
561.815	13.8
562.16	13.91
562.506	14.05
562.851	14.15
563.196	14.23
563.542	14.34
563.887	14.45
564.232	14.54
564.577	14.68
564.922	14.8
565.268	14.92
565.613	15.02
565.958	15.12
566.303	15.22
566.648	15.36
566.993	15.48
567.337	15.59
567.682	15.73
568.027	15.87
568.372	16
568.717	16.11
569.061	16.24
569.406	16.37
569.75	16.47
570.095	16.64
570.439	16.8
570.784	16.93
571.128	17.08
571.473	17.24
571.817	17.4
572.161	17.53
572.505	17.73
572.85	17.9
573.194	18.08
573.538	18.24
573.882	18.4
574.226	18.62
574.57	18.79
574.914	18.99
575.258	19.18
575.602	19.35
575.946	19.55
576.289	19.76
576.633	20
576.977	20.23
577.32	20.42
577.664	20.66
578.008	20.91
578.351	21.14
578.695	21.42
579.038	21.67
579.382	21.91
579.725	22.15
580.068	22.42
580.411	22.69
580.755	22.96
581.098	23.27
581.441	23.52
581.784	23.84
582.127	24.13
582.47	24.39
582.813	24.71
583.156	25.03
583.499	25.34
583.842	25.62
584.185	25.9
584.527	26.22
584.87	26.55
585.213	26.88
585.556	27.22
585.898	27.52
586.241	27.91
586.583	28.3
586.926	28.69
587.268	29.06
587.61	29.46
587.953	29.84
588.295	30.18
588.637	30.55
588.98	30.87
589.322	31.2
589.664	31.58
590.006	31.98
590.348	32.35
590.69	32.78
591.032	33.2
591.374	33.63
591.716	34.11
592.058	34.55
592.399	35.03
592.741	35.47
593.083	35.98
593.424	36.44
593.766	36.9
594.108	37.34
594.449	37.79
594.791	38.26
595.132	38.73
595.474	39.2
595.815	39.64
596.156	40.1
596.497	40.55
596.839	40.95
597.18	41.4
597.521	41.82
597.862	42.22
598.203	42.64
598.544	43.09
598.885	43.54
599.226	43.93
599.567	44.39
599.908	44.92
600.249	45.43
600.589	45.96
600.93	46.53
601.271	47.14
601.611	47.72
601.952	48.26
602.292	48.75
602.633	49.21
602.973	49.68
603.314	50.12
603.654	50.54
603.995	51
604.335	51.4
604.675	51.86
605.015	52.29
605.355	52.77
605.695	53.24
606.036	53.72
606.376	54.22
606.715	54.75
607.055	55.22
607.395	55.66
607.735	56.13
608.075	56.58
608.415	57.01
608.754	57.49
609.094	57.93
609.434	58.38
609.773	58.81
610.113	59.19
610.452	59.59
610.792	59.97
611.131	60.39
611.471	60.76
611.81	61.15
612.149	61.55
612.488	61.95
612.828	62.34
613.167	62.79
613.506	63.26
613.845	63.6
614.184	63.96
614.523	64.33
614.862	64.75
615.201	65.16
615.539	65.5
615.878	65.8
616.217	66.09
616.556	66.37
616.894	66.64
617.233	66.9
617.571	67.23
617.91	67.59
618.248	67.86
618.587	68.16
618.925	68.4
619.264	68.72
619.602	68.88
619.94	69.15
620.278	69.32
620.617	69.63
620.955	69.92
621.293	70.22
621.631	70.62
621.969	70.81
622.307	71.01
622.645	71.35
622.983	71.57
623.32	71.84
623.658	72.15
623.996	72.45
624.334	72.7
624.671	72.86
625.009	73.05
625.346	73.28
625.684	73.47
626.021	73.69
626.359	73.85
626.696	74.12
627.033	74.25
627.371	74.48
627.708	74.59
628.045	74.75
628.382	74.84
628.719	74.95
629.056	75.16
629.394	75.4
629.73	75.58
630.067	75.78
630.404	75.98
630.741	76.06
631.078	76.18
631.415	76.43
631.751	76.66
632.088	76.88
632.425	77.01
632.761	77.16
633.098	77.35
633.434	77.48
633.771	77.63
634.107	77.85
634.443	77.93
634.78	78.07
635.116	78.17
635.452	78.34
635.788	78.38
636.124	78.49
636.46	78.56
636.797	78.62
637.133	78.76
637.468	78.8
637.804	78.93
638.14	79.08
638.476	79.08
638.812	79.16
639.147	79.19
639.483	79.27
639.819	79.4
640.154	79.42
640.49	79.46
640.825	79.55
641.161	79.61
641.496	79.73
641.832	79.75
642.167	79.92
642.502	79.98
642.837	80.13
643.172	80.23
643.508	80.26
643.843	80.37
644.178	80.44
644.513	80.62
644.848	80.63
645.183	80.66
645.517	80.83
645.852	80.92
646.187	81
646.522	81.1
646.856	81.12
647.191	81.21
647.526	81.3
647.86	81.32
648.195	81.39
648.529	81.39
648.863	81.44
649.198	81.32
649.532	81.44
649.866	81.53
650.201	81.53
650.535	81.6
650.869	81.66
651.203	81.76
651.537	81.74
651.871	81.91
652.205	82.08
652.539	82.14
652.873	82.18
653.206	82.23
653.54	82.35
653.874	82.37
654.208	82.34
654.541	82.4
654.875	82.35
655.208	82.37
655.542	82.47
655.875	82.53
656.209	82.69
656.542	82.69
656.875	82.67
657.208	82.7
657.542	82.74
657.875	82.63
658.208	82.58
658.541	82.63
658.874	82.61
659.207	82.51
659.54	82.57
659.873	82.66
660.206	82.62
660.538	82.5
660.871	82.56
661.204	82.71
661.536	82.74
661.869	82.8
662.202	82.85
662.534	82.84
662.867	82.79
663.199	82.84
663.531	82.78
663.864	82.75
664.196	82.77
664.528	82.8
664.86	82.91
665.193	82.88
665.525	82.86
665.857	82.81
666.189	82.87
666.521	82.77
666.853	82.66
667.184	82.78
667.516	82.83
667.848	82.88
668.18	82.8
668.511	82.74
668.843	82.83
669.175	82.72
669.506	82.68
669.838	82.75
670.169	82.6
670.5	82.68
670.832	82.79
671.163	82.68
671.494	82.73
671.826	82.69
672.157	82.72
672.488	82.64
672.819	82.75
673.15	82.65
673.481	82.73
673.812	82.77
674.143	82.74
674.473	82.77
674.804	82.61
675.135	82.68
675.466	82.87
675.796	82.94
676.127	83.09
676.457	83.14
676.788	83.12
677.118	83.1
677.449	83.06
677.779	82.98
678.109	83.16
678.44	83.14
678.77	83.11
679.1	83.04
679.43	83.1
679.76	83.09
680.09	83.22
680.42	83.2
680.75	83.24
681.08	83.23
681.41	83.34
681.74	83.38
682.07	83.29
682.399	83.15
682.729	82.99
683.059	82.93
683.388	82.97
683.718	82.9
684.047	82.88
684.376	82.89
684.706	82.9
685.035	82.91
685.364	82.91
685.694	82.99
686.023	83.21
686.352	83.36
686.681	83.45
687.01	83.4
687.339	83.37
687.668	83.33
687.997	83.26
688.326	83.28
688.655	83.27
688.983	83.32
689.312	83.34
689.641	83.33
689.969	83.35
690.298	83.22
690.626	83.35
690.955	83.53
691.283	83.56
691.612	83.64
691.94	83.59
692.268	83.62
692.596	83.59
692.925	83.37
693.253	83.27
693.581	83.18
693.909	83.33
694.237	83.27
694.565	83.33
694.893	83.39
695.22	83.16
695.548	83.37
695.876	83.36
696.204	83.4
696.531	83.59
696.859	83.72
697.186	83.89
697.514	83.97
697.841	83.97
698.169	84.01
698.496	84
698.823	84.14
699.151	84.13
699.478	84.21
699.805	84.34
700.132	84.4
700.459	84.46
700.786	84.42
701.113	84.51
701.44	84.44
701.767	84.51
702.094	84.62
702.421	84.48
702.747	84.51
703.074	84.65
703.401	84.57
703.727	84.5
704.054	84.38
704.38	84.33
704.707	84.2
705.033	84.17
705.359	84.08
705.686	83.99
706.012	84.09
706.338	84.16
706.664	84.23
706.99	84.3
707.317	84.22
707.643	84.24
707.968	84.29
708.294	84.45
708.62	84.52
708.946	84.57
709.272	84.62
709.598	84.78
709.923	84.72
710.249	84.77
710.574	84.86
710.9	85.05
711.225	85.12
711.551	85.24
711.876	85.39
712.201	85.58
712.527	85.6
712.852	85.61
713.177	85.61
713.502	85.43
713.827	85.24
714.152	85.29
714.477	85.31
714.802	85.22
715.127	85.22
715.452	85.16
715.777	85.23
716.101	85.37
716.426	85.32
716.751	85.34
717.075	85.29
717.4	85.19
717.724	85.07
718.049	84.98
718.373	85.08
718.698	85
719.022	85.04
719.346	85.07
719.67	85.03
719.994	84.92
720.318	85.07
720.643	85.22
720.967	85.37
721.29	85.22
721.614	85.42
721.938	85.32
722.262	85.49
722.586	85.35
722.909	85.18
723.233	85.22
723.557	85.28
723.88	85.33
724.204	85.39
724.527	85.37
724.851	85.39
725.174	85.36
725.497	85.43
725.82	85.28
726.144	84.96
726.467	84.85
726.79	84.9
727.113	84.78
727.436	84.66
727.759	84.26
728.082	84.13
728.405	84.04
728.728	84.1
729.05	84.05
729.373	84.01
729.696	84.05
730.018	84.11
730.341	84.01
730.663	83.93
730.986	83.9
731.308	83.99
731.631	83.93
731.953	83.83
732.275	83.79
732.597	83.71
732.919	84.2
733.242	84.28
733.564	84.36
733.886	84.42
734.208	84.57
734.529	84.92
734.851	85.28
735.173	85.22
735.495	85.22
735.817	85.09
736.138	85.19
736.46	85.32
736.781	85.4
737.103	85.6
737.424	85.95
737.746	85.95
738.067	85.93
738.388	86.12
738.71	86.26
739.031	86.43
739.352	86.44
739.673	86.22
739.994	86.2
740.315	86.14
740.636	86.3
740.957	86.2
741.278	86.27
741.599	86.15
741.919	86.05
742.24	86.21
742.561	86.38
742.881	86.54
743.202	86.46
743.522	86.31
743.843	85.92
744.163	85.71
744.484	85.7
744.804	85.5
745.124	85.32
745.444	85.27
745.765	85.19
746.085	85.18
746.405	85.26
746.725	85.3
747.045	85.25
747.364	85.01
747.684	85.06
748.004	84.83
748.324	84.74
748.644	84.97
748.963	84.73
749.283	84.72
749.602	84.64
749.922	84.7
750.241	84.5
750.561	84.64
750.88	84.56
751.199	84.74
751.518	84.82
751.838	84.7
752.157	84.63
752.476	84.4
752.795	84.17
753.114	83.92
753.433	83.94
753.752	83.97
754.07	84.11
754.389	84.15
754.708	84.3
755.027	84.29
755.345	84.26
755.664	84.09
755.982	83.92
756.301	83.83
756.619	83.98
756.938	84.09
757.256	84.07
757.574	84.16
757.892	83.92
758.21	83.93
758.529	84.06
758.847	84.04
759.165	84.17
759.483	84.6
759.8	84.95
760.118	84.76
760.436	84.92
760.754	85.14
761.072	85.26
761.389	85.27
761.707	85.3
762.024	85.4
762.342	85.65
762.659	85.54
762.977	85.79
763.294	85.56
763.611	85.54
763.928	85.52
764.246	85.55
764.563	85.73
764.88	85.83
765.197	85.9
765.514	85.84
765.831	85.95
766.148	85.74
766.464	85.59
766.781	85.64
767.098	85.41
767.415	85.27
767.731	85.13
768.048	85.14
768.364	85.22
768.681	85.18
768.997	85.08
769.314	85.39
769.63	85.33
769.946	85.6
770.262	85.55
770.578	85.6
770.894	85.62
771.211	85.63
771.527	85.53
771.842	85.45
772.158	85.81
772.474	85.84
772.79	85.96
773.106	85.95
773.421	85.87
773.737	86.21
774.053	86.22
774.368	86.09
774.684	85.78
774.999	85.71
775.314	85.6
775.63	85.35
775.945	85.14
776.26	84.75
776.575	84.72
776.89	84.83
777.205	85.22
777.52	85.32
777.835	85.31
778.15	85.11
778.465	85.29
778.78	85.35
779.095	84.98
779.409	84.82
779.724	84.83
780.038	84.76
780.353	84.7
780.667	84.32
780.982	84.35
781.296	84.8
781.611	84.74
781.925	85
782.239	85.37
782.553	85.55
782.867	85.87
783.181	85.65
783.495	85.7
783.809	85.67
784.123	85.56
784.437	85.32
784.751	85.48
785.065	85.79
785.378	85.51
785.692	85.69
786.005	86.33
786.319	86.37
786.632	86.97
786.946	86.84
787.259	87.3
787.573	87.07
787.886	86.83
788.199	86.74
788.512	86.22
788.825	86
789.138	85.67
789.451	85.57
789.764	85.41
790.077	85.3
790.39	85.13
790.703	85.15
791.015	85.33
791.328	85.28
791.641	84.82
791.953	85.03
792.266	84.96
792.578	84.66
792.891	84.53
793.203	84.15
793.515	84.21
793.828	83.69
794.14	84.14
794.452	84.01
794.764	84.05
795.076	84.11
795.388	83.93
795.7	84.13
796.012	83.89
796.324	84.09
796.636	83.94
796.947	83.74
797.259	83.75
797.571	83.89
797.882	84.29
798.194	84.86
798.505	84.8
798.816	84.75
799.128	84.6
799.439	84.63
799.75	84.84
800.062	84.86
800.373	85.12
800.684	85.06
800.995	85.11
801.306	85.28
801.617	85.7
801.928	85.37
802.238	85.39
802.549	85.64
802.86	85.76
803.17	85.8
803.481	86.06
803.792	85.48
804.102	85.28
804.413	84.77
804.723	84.03
805.033	83.58
805.343	83.36
805.654	83.76
805.964	83.43
806.274	83.35
806.584	83.04
806.894	82.82
807.204	82.97
807.514	82.83
807.824	82.18
808.134	82.12
808.443	82.57
808.753	82.8
809.063	82.82
809.372	82.64
809.682	82.96
809.991	82.89
810.301	83.44
810.61	83.24
810.919	83.3
811.228	83.86
811.538	84.05
811.847	84.11
812.156	83.51
812.465	83.88
812.774	84.09
813.083	83.78
813.392	83.61
813.7	83.54
814.009	83.34
814.318	84.09
814.627	83.43
814.935	83.9
815.244	83.8
815.552	84.16
815.861	84.88
816.169	84.41
816.477	84.3
816.786	84.15
817.094	84.55
817.402	84.5
817.71	84.29
818.018	84.76
818.326	84.68
818.634	85.06
818.942	84.61
819.25	84.39
819.558	85.1
819.865	85.27
820.173	85.32
820.481	86
820.788	86.24
821.096	86.26
821.403	86.14
821.711	86.1
822.018	86.18
822.325	85.92
822.632	86.06
822.94	85.91
823.247	85.93
823.554	85.87
823.861	86.06
824.168	85.99
824.475	85.97
824.781	86.13
825.088	86.19
825.395	86.39
825.702	86.48
826.008	86.36
826.315	86.56
826.621	86.59
826.928	86.26
827.234	85.72
827.541	85.83
827.847	86.05
828.153	86.27
828.459	85.92
828.766	86.14
829.072	85.81
829.378	85.86
829.684	85.82
829.99	85.79
830.295	85.35
830.601	85.32
830.907	85.43
831.213	85.45
831.518	84.96
831.824	84.95
832.129	85.1
832.435	85.58
832.74	85.55
833.046	85.7
833.351	85.54
833.656	85.83
833.961	85.9
834.267	85.13
834.572	84.75
834.877	84.76
835.182	84.77
835.487	85.22
835.791	85.25
836.096	85.08
836.401	85.44
836.706	85.15
837.01	84.55
837.315	83.87
837.619	83.54
837.924	83.52
838.228	83.07
838.533	83.33
838.837	82.41
839.141	81.68
839.445	80.89
839.75	80.53
840.054	81.52
840.358	82.11
840.662	83.27
840.966	82.98
841.269	82.73
841.573	82.15
841.877	82.03
842.181	82.77
842.484	83.47
842.788	82.86
843.091	83.76
843.395	85.05
843.698	85.47
844.002	85.35
844.305	85.59
844.608	85.93
844.911	85.13
845.215	86.46
845.518	87.54
845.821	87.66
846.124	88.53
846.427	87.69
846.729	86.16
847.032	85.33
847.335	86.77
847.638	87.17
847.94	87.78
848.243	87.99
848.545	87.25
848.848	86.66
849.15	86.44
849.453	85.93
849.755	86.49
850.057	86.38
850.359	85.9
850.661	87.16
850.963	85.4
851.265	83.77
851.567	82.23
851.869	82.57
852.171	82.96
852.473	81.11
852.775	81.46
853.076	80.4
853.378	81.22
853.68	80.46
853.981	82.27
854.282	81.91
854.584	80.7
854.885	82.08
855.186	82.31
855.488	82.83
855.789	82.49
856.09	81.98
856.391	81.52
856.692	80.85
856.993	78.85
857.294	80.96
857.595	84.42
857.895	85.12
858.196	84.68
858.497	83.9
858.797	85.09
859.098	84.05
859.398	86.73
859.699	86.39
859.999	85.24
860.3	82.99
860.6	82.24
860.9	82.54
861.2	81.53
861.5	79.86
861.8	80.31
862.1	80.28
862.4	80.85
862.7	81.85
863	82.74
863.3	83.95
863.599	83.93
863.899	81.1
864.198	81.6
864.498	80.26
864.797	81.77
865.097	79.88
865.396	78.84
865.695	78.34
865.995	78.43
866.294	79.11
866.593	78.9
866.892	77.91
867.191	78.39
867.49	78.28
867.789	79.46
868.088	78.95
868.386	79.47
868.685	79.86
868.984	79.52
869.282	80
869.581	78.66
869.879	78.89
870.178	79.82
870.476	78.13
870.775	78.87
871.073	78.35
871.371	80.7
871.669	80.95
871.967	80.15
872.265	79.57
872.563	81.6
872.861	81.53
873.159	82.76
873.457	82.23
873.755	79.97
874.052	79.72
874.35	81.15
874.647	83.1
874.945	81.87
875.242	82.93
875.54	83.8
875.837	84.95
876.134	85.29
876.432	85.87
876.729	87.09
877.026	86.44
877.323	86.3
877.62	84.85
877.917	85
878.214	85.3
878.511	84.88
878.807	83.84
879.104	84.24
879.401	85
879.697	85.53
879.994	86.45
880.29	86.14
880.587	85.51
880.883	85.04
881.179	85.49
881.475	85.37
881.772	85.32
882.068	85.11
882.364	84.57
882.66	84.21
882.956	84.07
883.252	83.93
883.548	83.81
883.843	84.2
884.139	84.43
884.435	84.83
884.73	84.68
885.026	84.56
885.321	84.71
885.617	84.44
885.912	84.46
886.207	84.18
886.503	84.28
886.798	83.95
887.093	84.63
887.388	84.45
887.683	84.7
887.978	84.3
888.273	86.93
888.568	88.61
888.862	90.17
889.157	90.87
889.452	92.91
889.746	93.77
890.041	93.9
890.335	94.34
890.63	92.11
890.924	94.86
891.219	96.78
891.513	97.34
