Data from coltest_Reflection_006.txt Node
Date: Mon Feb 02 14:06:38 EST 2015
User: jamesohanlon
Spectrometer: JAZA0776
Autoset integration time: false
Trigger mode: 0
Integration Time (sec): 1.000000E-1
Scans to average: 10
Electric dark correction enabled: true
Nonlinearity correction enabled: false
Boxcar width: 10
Stray light correction enabled: false
XAxis mode: Wavelengths
Stop averaging: false
Number of Pixels in Spectrum: 2048
>>>>>Begin Spectral Data<<<<<
190.472	-58.35
190.851	2.97
191.23	37.03
191.609	91.07
191.988	47.87
192.366	50.72
192.745	35.19
193.124	41.87
193.503	52.3
193.882	61.19
194.26	54.84
194.639	41.74
195.018	37.39
195.397	34.27
195.775	38.76
196.154	33.92
196.532	33.62
196.911	31.77
197.29	23.36
197.668	15.91
198.047	15.39
198.425	16.91
198.803	12.88
199.182	13.99
199.56	14.12
199.939	12.28
200.317	10.96
200.695	15.83
201.074	15.59
201.452	14.76
201.83	14.09
202.208	10.01
202.587	9.51
202.965	3.68
203.343	4.21
203.721	-0.11
204.099	1.07
204.477	2.82
204.855	4.5
205.233	6.76
205.611	7.98
205.989	3.65
206.367	4.14
206.745	3.43
207.123	0.59
207.501	2.04
207.879	3.85
208.257	5.9
208.635	3.78
209.012	1.62
209.39	-0.9
209.768	-1.45
210.146	1.59
210.523	0.6
210.901	0.34
211.278	-2.02
211.656	0.36
212.034	0.2
212.411	-1.69
212.789	0.03
213.166	5.19
213.544	5.69
213.921	5.65
214.299	9.38
214.676	8.97
215.053	9.14
215.431	7.41
215.808	8.83
216.185	10.62
216.563	13.1
216.94	14.78
217.317	14.04
217.694	17.34
218.072	17.83
218.449	18.41
218.826	18.11
219.203	19.57
219.58	22.99
219.957	22.66
220.334	20.98
220.711	20.82
221.088	22.65
221.465	24.97
221.842	26.54
222.219	28.4
222.596	28.51
222.973	28.93
223.349	28.94
223.726	29.34
224.103	29.78
224.48	29.65
224.856	29.24
225.233	29.65
225.61	29.48
225.986	29.57
226.363	30.1
226.74	29.43
227.116	29.22
227.493	29.42
227.869	29.92
228.246	30.33
228.622	29.64
228.999	29.25
229.375	28.77
229.751	28.27
230.128	28.52
230.504	28.6
230.88	28.43
231.257	28.02
231.633	27.69
232.009	27.69
232.385	27.63
232.761	27.66
233.138	27.65
233.514	27.7
233.89	27.7
234.266	27.54
234.642	27.41
235.018	26.66
235.394	26.62
235.77	26.63
236.146	26.59
236.522	26.28
236.898	26.13
237.274	25.84
237.649	25.36
238.025	25.13
238.401	25.08
238.777	25.05
239.152	24.82
239.528	24.55
239.904	24.36
240.279	24.07
240.655	23.91
241.031	23.79
241.406	23.72
241.782	23.47
242.157	23.42
242.533	23.3
242.908	23.13
243.284	22.98
243.659	22.83
244.034	22.76
244.41	22.71
244.785	22.68
245.16	22.58
245.536	22.43
245.911	22.34
246.286	22.3
246.661	22.28
247.037	22.11
247.412	21.98
247.787	21.92
248.162	21.8
248.537	21.61
248.912	21.48
249.287	21.36
249.662	21.31
250.037	21.21
250.412	21.21
250.787	21.1
251.162	21.01
251.537	20.82
251.911	20.69
252.286	20.59
252.661	20.35
253.036	20.31
253.41	20.29
253.785	20.05
254.16	19.83
254.534	19.76
254.909	19.72
255.284	19.66
255.658	19.59
256.033	19.41
256.407	19.26
256.782	19.15
257.156	19.11
257.53	19
257.905	18.89
258.279	18.91
258.654	18.86
259.028	18.82
259.402	18.74
259.776	18.74
260.151	18.65
260.525	18.61
260.899	18.59
261.273	18.6
261.647	18.62
262.021	18.57
262.395	18.6
262.769	18.58
263.143	18.53
263.517	18.57
263.891	18.6
264.265	18.61
264.639	18.59
265.013	18.56
265.387	18.54
265.761	18.45
266.135	18.42
266.508	18.4
266.882	18.39
267.256	18.38
267.629	18.35
268.003	18.34
268.377	18.22
268.75	18.16
269.124	18.2
269.497	18.25
269.871	18.2
270.244	18.17
270.618	18.08
270.991	18.09
271.365	18.09
271.738	18.1
272.111	18.12
272.485	18.13
272.858	18.19
273.231	18.18
273.604	18.13
273.978	18.11
274.351	18.09
274.724	18.13
275.097	18.09
275.47	18.11
275.843	18.15
276.216	18.15
276.589	18.05
276.962	18.01
277.335	17.96
277.708	17.95
278.081	17.96
278.454	17.94
278.827	17.87
279.2	17.86
279.572	17.84
279.945	17.82
280.318	17.76
280.691	17.72
281.063	17.7
281.436	17.64
281.808	17.56
282.181	17.51
282.554	17.49
282.926	17.47
283.299	17.51
283.671	17.5
284.044	17.47
284.416	17.39
284.788	17.34
285.161	17.24
285.533	17.13
285.905	17.13
286.278	17.09
286.65	17.05
287.022	17
287.394	16.93
287.766	16.85
288.139	16.76
288.511	16.75
288.883	16.72
289.255	16.73
289.627	16.65
289.999	16.58
290.371	16.52
290.743	16.44
291.115	16.38
291.486	16.31
291.858	16.28
292.23	16.21
292.602	16.19
292.974	16.13
293.345	16.06
293.717	16.02
294.089	15.98
294.46	15.92
294.832	15.84
295.204	15.78
295.575	15.74
295.947	15.68
296.318	15.64
296.69	15.62
297.061	15.6
297.433	15.53
297.804	15.47
298.175	15.37
298.547	15.32
298.918	15.25
299.289	15.2
299.66	15.24
300.032	15.18
300.403	15.17
300.774	15.17
301.145	15.08
301.516	15.02
301.887	14.98
302.258	14.9
302.629	14.87
303	14.84
303.371	14.81
303.742	14.77
304.113	14.67
304.484	14.59
304.855	14.52
305.226	14.45
305.596	14.46
305.967	14.41
306.338	14.35
306.708	14.31
307.079	14.27
307.45	14.23
307.82	14.17
308.191	14.1
308.561	14.05
308.932	14.01
309.302	13.99
309.673	13.96
310.043	13.97
310.414	13.94
310.784	13.89
311.154	13.91
311.525	13.87
311.895	13.86
312.265	13.78
312.635	13.76
313.006	13.74
313.376	13.72
313.746	13.63
314.116	13.6
314.486	13.54
314.856	13.43
315.226	13.45
315.596	13.39
315.966	13.33
316.336	13.31
316.706	13.25
317.076	13.21
317.445	13.19
317.815	13.13
318.185	13.07
318.555	12.99
318.924	12.91
319.294	12.92
319.664	12.83
320.033	12.82
320.403	12.79
320.772	12.69
321.142	12.67
321.511	12.61
321.881	12.56
322.25	12.5
322.62	12.41
322.989	12.37
323.358	12.37
323.728	12.33
324.097	12.26
324.466	12.25
324.836	12.16
325.205	12.12
325.574	12.05
325.943	12.07
326.312	11.97
326.681	11.92
327.05	11.86
327.419	11.83
327.788	11.82
328.157	11.79
328.526	11.78
328.895	11.75
329.264	11.72
329.633	11.73
330.001	11.72
330.37	11.66
330.739	11.62
331.108	11.6
331.476	11.57
331.845	11.54
332.214	11.51
332.582	11.48
332.951	11.44
333.319	11.4
333.688	11.37
334.056	11.36
334.425	11.26
334.793	11.26
335.161	11.24
335.53	11.24
335.898	11.2
336.266	11.21
336.635	11.13
337.003	11.09
337.371	11.06
337.739	11.03
338.107	11
338.475	10.95
338.843	10.94
339.212	10.88
339.58	10.88
339.947	10.84
340.315	10.75
340.683	10.72
341.051	10.71
341.419	10.73
341.787	10.73
342.155	10.71
342.522	10.69
342.89	10.64
343.258	10.57
343.625	10.53
343.993	10.48
344.361	10.45
344.728	10.4
345.096	10.35
345.463	10.29
345.831	10.28
346.198	10.28
346.566	10.24
346.933	10.23
347.3	10.23
347.668	10.22
348.035	10.21
348.402	10.21
348.769	10.2
349.137	10.11
349.504	10.11
349.871	10.06
350.238	10.04
350.605	10
350.972	9.99
351.339	9.94
351.706	9.97
352.073	9.98
352.44	9.96
352.807	9.98
353.174	9.99
353.54	10
353.907	9.98
354.274	10
354.641	9.94
355.007	9.94
355.374	9.94
355.741	9.95
356.107	9.91
356.474	9.87
356.84	9.86
357.207	9.84
357.573	9.82
357.94	9.82
358.306	9.82
358.673	9.81
359.039	9.82
359.405	9.81
359.771	9.8
360.138	9.8
360.504	9.79
360.87	9.8
361.236	9.76
361.602	9.72
361.968	9.73
362.335	9.71
362.701	9.69
363.067	9.65
363.432	9.61
363.798	9.59
364.164	9.65
364.53	9.65
364.896	9.62
365.262	9.59
365.628	9.57
365.993	9.56
366.359	9.54
366.725	9.51
367.09	9.48
367.456	9.47
367.821	9.48
368.187	9.43
368.553	9.39
368.918	9.35
369.283	9.32
369.649	9.27
370.014	9.26
370.38	9.28
370.745	9.23
371.11	9.25
371.475	9.22
371.841	9.21
372.206	9.19
372.571	9.22
372.936	9.17
373.301	9.15
373.666	9.13
374.031	9.09
374.396	9.08
374.761	9.07
375.126	9.07
375.491	9.07
375.856	9.06
376.221	9.04
376.586	9.06
376.95	9
377.315	8.96
377.68	8.94
378.044	8.93
378.409	8.93
378.774	8.94
379.138	8.91
379.503	8.9
379.867	8.87
380.232	8.87
380.596	8.86
380.961	8.87
381.325	8.88
381.689	8.88
382.054	8.89
382.418	8.91
382.782	8.89
383.146	8.91
383.51	8.88
383.875	8.88
384.239	8.87
384.603	8.87
384.967	8.85
385.331	8.82
385.695	8.83
386.059	8.79
386.423	8.78
386.786	8.74
387.15	8.71
387.514	8.69
387.878	8.69
388.242	8.68
388.605	8.67
388.969	8.67
389.333	8.67
389.696	8.68
390.06	8.66
390.423	8.66
390.787	8.65
391.15	8.67
391.514	8.65
391.877	8.67
392.241	8.69
392.604	8.68
392.967	8.67
393.331	8.66
393.694	8.66
394.057	8.63
394.42	8.61
394.783	8.62
395.146	8.61
395.51	8.6
395.873	8.59
396.236	8.57
396.599	8.55
396.962	8.51
397.324	8.47
397.687	8.45
398.05	8.45
398.413	8.46
398.776	8.46
399.138	8.46
399.501	8.46
399.864	8.46
400.227	8.45
400.589	8.43
400.952	8.42
401.314	8.43
401.677	8.43
402.039	8.45
402.402	8.43
402.764	8.4
403.126	8.4
403.489	8.4
403.851	8.41
404.213	8.4
404.576	8.4
404.938	8.38
405.3	8.36
405.662	8.34
406.024	8.31
406.386	8.31
406.748	8.31
407.11	8.3
407.472	8.28
407.834	8.3
408.196	8.33
408.558	8.3
408.92	8.32
409.282	8.31
409.643	8.34
410.005	8.33
410.367	8.34
410.728	8.33
411.09	8.33
411.452	8.33
411.813	8.34
412.175	8.35
412.536	8.32
412.898	8.29
413.259	8.29
413.62	8.29
413.982	8.29
414.343	8.28
414.704	8.29
415.066	8.27
415.427	8.27
415.788	8.27
416.149	8.26
416.51	8.26
416.871	8.25
417.232	8.24
417.593	8.24
417.954	8.24
418.315	8.22
418.676	8.22
419.037	8.22
419.398	8.23
419.759	8.24
420.119	8.24
420.48	8.24
420.841	8.25
421.201	8.27
421.562	8.25
421.923	8.25
422.283	8.26
422.644	8.25
423.004	8.23
423.365	8.22
423.725	8.21
424.086	8.21
424.446	8.2
424.806	8.19
425.166	8.18
425.527	8.17
425.887	8.15
426.247	8.14
426.607	8.15
426.967	8.15
427.327	8.15
427.687	8.15
428.047	8.14
428.407	8.13
428.767	8.13
429.127	8.12
429.487	8.12
429.847	8.14
430.207	8.15
430.566	8.13
430.926	8.15
431.286	8.16
431.645	8.16
432.005	8.17
432.365	8.19
432.724	8.2
433.084	8.2
433.443	8.18
433.803	8.17
434.162	8.14
434.521	8.14
434.881	8.13
435.24	8.14
435.599	8.13
435.958	8.11
436.318	8.12
436.677	8.13
437.036	8.14
437.395	8.14
437.754	8.15
438.113	8.16
438.472	8.17
438.831	8.17
439.19	8.18
439.549	8.19
439.908	8.19
440.266	8.17
440.625	8.17
440.984	8.17
441.343	8.16
441.701	8.16
442.06	8.16
442.418	8.17
442.777	8.16
443.136	8.17
443.494	8.17
443.852	8.17
444.211	8.15
444.569	8.14
444.928	8.11
445.286	8.13
445.644	8.1
446.002	8.1
446.361	8.1
446.719	8.1
447.077	8.09
447.435	8.08
447.793	8.08
448.151	8.08
448.509	8.09
448.867	8.09
449.225	8.09
449.583	8.1
449.94	8.09
450.298	8.1
450.656	8.1
451.014	8.1
451.371	8.08
451.729	8.07
452.087	8.08
452.444	8.08
452.802	8.08
453.159	8.08
453.517	8.08
453.874	8.07
454.232	8.07
454.589	8.08
454.946	8.11
455.304	8.12
455.661	8.15
456.018	8.15
456.375	8.14
456.732	8.15
457.09	8.15
457.447	8.16
457.804	8.16
458.161	8.16
458.518	8.16
458.875	8.17
459.231	8.17
459.588	8.17
459.945	8.16
460.302	8.17
460.659	8.18
461.015	8.17
461.372	8.16
461.729	8.16
462.085	8.16
462.442	8.16
462.798	8.16
463.155	8.15
463.511	8.15
463.868	8.14
464.224	8.14
464.58	8.14
464.937	8.13
465.293	8.14
465.649	8.15
466.005	8.15
466.362	8.14
466.718	8.14
467.074	8.12
467.43	8.13
467.786	8.14
468.142	8.12
468.498	8.13
468.854	8.14
469.21	8.14
469.565	8.16
469.921	8.15
470.277	8.12
470.633	8.13
470.988	8.14
471.344	8.13
471.7	8.13
472.055	8.13
472.411	8.11
472.766	8.11
473.122	8.11
473.477	8.11
473.832	8.12
474.188	8.12
474.543	8.14
474.898	8.13
475.254	8.12
475.609	8.11
475.964	8.1
476.319	8.08
476.674	8.07
477.029	8.05
477.384	8.05
477.739	8.06
478.094	8.05
478.449	8.06
478.804	8.06
479.159	8.05
479.513	8.05
479.868	8.05
480.223	8.04
480.578	8.04
480.932	8.04
481.287	8.04
481.641	8.04
481.996	8.04
482.35	8.04
482.705	8.05
483.059	8.05
483.414	8.06
483.768	8.05
484.122	8.04
484.477	8.04
484.831	8.04
485.185	8.05
485.539	8.06
485.893	8.06
486.247	8.07
486.601	8.07
486.955	8.08
487.309	8.08
487.663	8.08
488.017	8.08
488.371	8.08
488.725	8.08
489.078	8.08
489.432	8.08
489.786	8.08
490.14	8.09
490.493	8.1
490.847	8.11
491.2	8.13
491.554	8.14
491.907	8.15
492.261	8.15
492.614	8.16
492.967	8.16
493.321	8.17
493.674	8.19
494.027	8.19
494.38	8.2
494.734	8.22
495.087	8.24
495.44	8.26
495.793	8.27
496.146	8.27
496.499	8.28
496.852	8.28
497.205	8.29
497.558	8.29
497.91	8.29
498.263	8.3
498.616	8.31
498.969	8.33
499.321	8.35
499.674	8.35
500.027	8.34
500.379	8.34
500.732	8.35
501.084	8.35
501.436	8.34
501.789	8.35
502.141	8.36
502.494	8.37
502.846	8.36
503.198	8.36
503.55	8.37
503.902	8.39
504.255	8.41
504.607	8.42
504.959	8.42
505.311	8.43
505.663	8.44
506.015	8.45
506.367	8.46
506.718	8.49
507.07	8.48
507.422	8.48
507.774	8.49
508.125	8.47
508.477	8.48
508.829	8.48
509.18	8.48
509.532	8.47
509.883	8.46
510.235	8.47
510.586	8.49
510.938	8.52
511.289	8.51
511.64	8.51
511.992	8.53
512.343	8.54
512.694	8.54
513.045	8.55
513.396	8.55
513.747	8.57
514.098	8.58
514.449	8.6
514.8	8.6
515.151	8.61
515.502	8.62
515.853	8.62
516.204	8.62
516.555	8.63
516.905	8.64
517.256	8.65
517.607	8.66
517.957	8.67
518.308	8.66
518.658	8.66
519.009	8.65
519.359	8.66
519.71	8.66
520.06	8.67
520.41	8.68
520.761	8.68
521.111	8.67
521.461	8.67
521.811	8.68
522.162	8.68
522.512	8.68
522.862	8.69
523.212	8.71
523.562	8.72
523.912	8.73
524.262	8.74
524.611	8.74
524.961	8.75
525.311	8.75
525.661	8.77
526.01	8.77
526.36	8.77
526.71	8.78
527.059	8.79
527.409	8.8
527.758	8.81
528.108	8.81
528.457	8.81
528.807	8.82
529.156	8.83
529.505	8.84
529.855	8.85
530.204	8.86
530.553	8.87
530.902	8.88
531.251	8.89
531.6	8.9
531.949	8.92
532.298	8.93
532.647	8.94
532.996	8.96
533.345	8.98
533.694	8.99
534.043	9.01
534.391	9.02
534.74	9.03
535.089	9.06
535.437	9.07
535.786	9.11
536.135	9.14
536.483	9.16
536.832	9.19
537.18	9.21
537.528	9.23
537.877	9.26
538.225	9.28
538.573	9.29
538.921	9.31
539.27	9.33
539.618	9.34
539.966	9.36
540.314	9.39
540.662	9.42
541.01	9.44
541.358	9.46
541.706	9.49
542.054	9.52
542.402	9.54
542.749	9.56
543.097	9.58
543.445	9.6
543.792	9.63
544.14	9.65
544.488	9.68
544.835	9.71
545.183	9.74
545.53	9.76
545.878	9.79
546.225	9.83
546.572	9.86
546.92	9.88
547.267	9.92
547.614	9.96
547.961	10.01
548.308	10.04
548.655	10.11
549.002	10.16
549.349	10.21
549.696	10.27
550.043	10.31
550.39	10.36
550.737	10.42
551.084	10.46
551.431	10.54
551.777	10.59
552.124	10.61
552.471	10.67
552.817	10.74
553.164	10.79
553.51	10.85
553.857	10.92
554.203	11
554.55	11.06
554.896	11.14
555.242	11.21
555.589	11.28
555.935	11.34
556.281	11.39
556.627	11.47
556.973	11.54
557.319	11.61
557.665	11.67
558.011	11.74
558.357	11.82
558.703	11.89
559.049	11.98
559.395	12.05
559.741	12.15
560.086	12.24
560.432	12.33
560.778	12.43
561.123	12.54
561.469	12.62
561.815	12.71
562.16	12.8
562.506	12.91
562.851	13.02
563.196	13.13
563.542	13.22
563.887	13.33
564.232	13.46
564.577	13.59
564.922	13.71
565.268	13.84
565.613	13.95
565.958	14.08
566.303	14.22
566.648	14.35
566.993	14.45
567.337	14.58
567.682	14.71
568.027	14.85
568.372	14.99
568.717	15.14
569.061	15.27
569.406	15.42
569.75	15.56
570.095	15.73
570.439	15.89
570.784	16.04
571.128	16.19
571.473	16.34
571.817	16.5
572.161	16.66
572.505	16.82
572.85	16.99
573.194	17.18
573.538	17.36
573.882	17.53
574.226	17.73
574.57	17.9
574.914	18.1
575.258	18.29
575.602	18.49
575.946	18.69
576.289	18.9
576.633	19.13
576.977	19.34
577.32	19.57
577.664	19.8
578.008	20.05
578.351	20.3
578.695	20.54
579.038	20.8
579.382	21.08
579.725	21.37
580.068	21.65
580.411	21.95
580.755	22.25
581.098	22.58
581.441	22.88
581.784	23.21
582.127	23.56
582.47	23.91
582.813	24.27
583.156	24.65
583.499	25.01
583.842	25.4
584.185	25.74
584.527	26.11
584.87	26.51
585.213	26.91
585.556	27.26
585.898	27.65
586.241	28.04
586.583	28.43
586.926	28.82
587.268	29.21
587.61	29.65
587.953	30.09
588.295	30.51
588.637	30.97
588.98	31.42
589.322	31.87
589.664	32.36
590.006	32.86
590.348	33.33
590.69	33.8
591.032	34.28
591.374	34.74
591.716	35.19
592.058	35.64
592.399	36.08
592.741	36.52
593.083	36.99
593.424	37.41
593.766	37.83
594.108	38.28
594.449	38.7
594.791	39.14
595.132	39.62
595.474	40.1
595.815	40.59
596.156	41.1
596.497	41.61
596.839	42.11
597.18	42.65
597.521	43.19
597.862	43.75
598.203	44.31
598.544	44.83
598.885	45.33
599.226	45.81
599.567	46.32
599.908	46.8
600.249	47.27
600.589	47.74
600.93	48.23
601.271	48.72
601.611	49.2
601.952	49.67
602.292	50.16
602.633	50.67
602.973	51.17
603.314	51.68
603.654	52.17
603.995	52.7
604.335	53.25
604.675	53.76
605.015	54.22
605.355	54.68
605.695	55.17
606.036	55.58
606.376	55.97
606.715	56.39
607.055	56.8
607.395	57.22
607.735	57.6
608.075	57.98
608.415	58.4
608.754	58.78
609.094	59.15
609.434	59.53
609.773	59.96
610.113	60.34
610.452	60.76
610.792	61.21
611.131	61.61
611.471	62
611.81	62.43
612.149	62.83
612.488	63.28
612.828	63.72
613.167	64.14
613.506	64.51
613.845	64.9
614.184	65.25
614.523	65.61
614.862	65.91
615.201	66.27
615.539	66.61
615.878	66.97
616.217	67.31
616.556	67.67
616.894	68.01
617.233	68.33
617.571	68.69
617.91	69.01
618.248	69.3
618.587	69.6
618.925	69.91
619.264	70.16
619.602	70.42
619.94	70.68
620.278	70.99
620.617	71.22
620.955	71.44
621.293	71.68
621.631	71.93
621.969	72.18
622.307	72.38
622.645	72.58
622.983	72.78
623.32	73.03
623.658	73.21
623.996	73.41
624.334	73.61
624.671	73.84
625.009	74.04
625.346	74.25
625.684	74.43
626.021	74.64
626.359	74.83
626.696	74.99
627.033	75.15
627.371	75.28
627.708	75.42
628.045	75.58
628.382	75.7
628.719	75.86
629.056	75.99
629.394	76.12
629.73	76.25
630.067	76.4
630.404	76.52
630.741	76.68
631.078	76.85
631.415	76.98
631.751	77.12
632.088	77.24
632.425	77.38
632.761	77.52
633.098	77.66
633.434	77.77
633.771	77.89
634.107	77.98
634.443	78.12
634.78	78.25
635.116	78.36
635.452	78.49
635.788	78.58
636.124	78.69
636.46	78.83
636.797	78.97
637.133	79
637.468	79.09
637.804	79.17
638.14	79.25
638.476	79.29
638.812	79.34
639.147	79.44
639.483	79.49
639.819	79.6
640.154	79.67
640.49	79.72
640.825	79.82
641.161	79.95
641.496	80.03
641.832	80.1
642.167	80.2
642.502	80.29
642.837	80.41
643.172	80.5
643.508	80.58
643.843	80.69
644.178	80.77
644.513	80.83
644.848	80.89
645.183	80.96
645.517	81.04
645.852	81.06
646.187	81.11
646.522	81.16
646.856	81.26
647.191	81.36
647.526	81.45
647.86	81.48
648.195	81.49
648.529	81.56
648.863	81.62
649.198	81.63
649.532	81.67
649.866	81.72
650.201	81.75
650.535	81.75
650.869	81.82
651.203	81.86
651.537	81.96
651.871	81.98
652.205	82.03
652.539	82.13
652.873	82.15
653.206	82.24
653.54	82.24
653.874	82.25
654.208	82.29
654.541	82.33
654.875	82.38
655.208	82.4
655.542	82.49
655.875	82.52
656.209	82.56
656.542	82.49
656.875	82.53
657.208	82.57
657.542	82.55
657.875	82.58
658.208	82.58
658.541	82.62
658.874	82.68
659.207	82.68
659.54	82.73
659.873	82.75
660.206	82.78
660.538	82.71
660.871	82.72
661.204	82.75
661.536	82.78
661.869	82.77
662.202	82.79
662.534	82.81
662.867	82.85
663.199	82.86
663.531	82.82
663.864	82.76
664.196	82.77
664.528	82.81
664.86	82.79
665.193	82.73
665.525	82.7
665.857	82.69
666.189	82.68
666.521	82.65
666.853	82.63
667.184	82.68
667.516	82.66
667.848	82.68
668.18	82.6
668.511	82.6
668.843	82.54
669.175	82.51
669.506	82.52
669.838	82.48
670.169	82.49
670.5	82.45
670.832	82.46
671.163	82.41
671.494	82.39
671.826	82.38
672.157	82.34
672.488	82.29
672.819	82.3
673.15	82.31
673.481	82.32
673.812	82.22
674.143	82.3
674.473	82.25
674.804	82.24
675.135	82.25
675.466	82.32
675.796	82.3
676.127	82.34
676.457	82.36
676.788	82.39
677.118	82.47
677.449	82.54
677.779	82.54
678.109	82.49
678.44	82.52
678.77	82.54
679.1	82.55
679.43	82.52
679.76	82.5
680.09	82.56
680.42	82.55
680.75	82.54
681.08	82.57
681.41	82.54
681.74	82.55
682.07	82.49
682.399	82.51
682.729	82.53
683.059	82.52
683.388	82.47
683.718	82.51
684.047	82.6
684.376	82.58
684.706	82.63
685.035	82.67
685.364	82.68
685.694	82.69
686.023	82.7
686.352	82.68
686.681	82.65
687.01	82.67
687.339	82.78
687.668	82.82
687.997	82.84
688.326	82.83
688.655	82.84
688.983	82.86
689.312	82.93
689.641	82.9
689.969	82.92
690.298	82.87
690.626	82.82
690.955	82.85
691.283	82.88
691.612	82.93
691.94	82.94
692.268	82.99
692.596	83.08
692.925	83.15
693.253	83.12
693.581	83.12
693.909	83.21
694.237	83.26
694.565	83.25
694.893	83.29
695.22	83.37
695.548	83.4
695.876	83.47
696.204	83.47
696.531	83.53
696.859	83.66
697.186	83.71
697.514	83.66
697.841	83.7
698.169	83.76
698.496	83.74
698.823	83.76
699.151	83.79
699.478	83.79
699.805	83.86
700.132	83.89
700.459	83.85
700.786	83.84
701.113	83.81
701.44	83.81
701.767	83.94
702.094	83.92
702.421	83.91
702.747	83.88
703.074	83.93
703.401	83.91
703.727	83.96
704.054	83.98
704.38	83.97
704.707	83.97
705.033	84.01
705.359	83.95
705.686	83.92
706.012	83.89
706.338	83.87
706.664	83.89
706.99	83.93
707.317	83.83
707.643	83.76
707.968	83.7
708.294	83.7
708.62	83.71
708.946	83.76
709.272	83.7
709.598	83.69
709.923	83.63
710.249	83.62
710.574	83.58
710.9	83.59
711.225	83.48
711.551	83.44
711.876	83.47
712.201	83.41
712.527	83.4
712.852	83.36
713.177	83.32
713.502	83.3
713.827	83.36
714.152	83.4
714.477	83.44
714.802	83.47
715.127	83.32
715.452	83.38
715.777	83.32
716.101	83.3
716.426	83.3
716.751	83.29
717.075	83.26
717.4	83.24
717.724	83.32
718.049	83.4
718.373	83.31
718.698	83.38
719.022	83.4
719.346	83.36
719.67	83.36
719.994	83.39
720.318	83.42
720.643	83.43
720.967	83.44
721.29	83.54
721.614	83.47
721.938	83.42
722.262	83.37
722.586	83.41
722.909	83.39
723.233	83.43
723.557	83.34
723.88	83.35
724.204	83.22
724.527	83.34
724.851	83.37
725.174	83.35
725.497	83.33
725.82	83.28
726.144	83.27
726.467	83.33
726.79	83.4
727.113	83.36
727.436	83.3
727.759	83.15
728.082	83.11
728.405	83.1
728.728	83.18
729.05	83.28
729.373	83.36
729.696	83.33
730.018	83.41
730.341	83.45
730.663	83.45
730.986	83.41
731.308	83.39
731.631	83.43
731.953	83.32
732.275	83.22
732.597	83.28
732.919	83.34
733.242	83.38
733.564	83.28
733.886	83.21
734.208	83.2
734.529	83.17
734.851	83.32
735.173	83.35
735.495	83.3
735.817	83.28
736.138	83.33
736.46	83.32
736.781	83.35
737.103	83.32
737.424	83.41
737.746	83.32
738.067	83.25
738.388	83.11
738.71	83.18
739.031	83.2
739.352	83.23
739.673	83.19
739.994	83.05
740.315	83.06
740.636	83.09
740.957	83.19
741.278	83.2
741.599	83.34
741.919	83.17
742.24	83.22
742.561	83.18
742.881	83.14
743.202	83.07
743.522	83.01
743.843	83.04
744.163	83.07
744.484	83.06
744.804	83.09
745.124	83.17
745.444	83.21
745.765	83.1
746.085	83.12
746.405	83.05
746.725	83.04
747.045	83.1
747.364	83.08
747.684	83.12
748.004	83.02
748.324	83.03
748.644	82.95
748.963	83.01
749.283	82.84
749.602	82.85
749.922	82.86
750.241	82.78
750.561	82.72
750.88	82.74
751.199	82.75
751.518	82.85
751.838	82.84
752.157	82.89
752.476	82.91
752.795	82.9
753.114	83
753.433	83.04
753.752	83.13
754.07	83.25
754.389	83.26
754.708	83.21
755.027	83.27
755.345	83.23
755.664	83.14
755.982	83.22
756.301	83.13
756.619	83.19
756.938	83.06
757.256	83.12
757.574	83.16
757.892	83.14
758.21	83.2
758.529	83.28
758.847	83.33
759.165	83.21
759.483	83.16
759.8	83.14
760.118	83.03
760.436	83.11
760.754	83.08
761.072	83.08
761.389	83.01
761.707	83.11
762.024	83.09
762.342	83.11
762.659	83.07
762.977	83.04
763.294	83.07
763.611	83.11
763.928	83.1
764.246	83.08
764.563	83.16
764.88	83.16
765.197	83.21
765.514	83.16
765.831	83.09
766.148	83.02
766.464	82.96
766.781	82.86
767.098	82.69
767.415	82.64
767.731	82.56
768.048	82.58
768.364	82.48
768.681	82.46
768.997	82.49
769.314	82.59
769.63	82.54
769.946	82.66
770.262	82.47
770.578	82.29
770.894	82.25
771.211	82.08
771.527	81.88
771.842	81.73
772.158	81.78
772.474	81.91
772.79	81.95
773.106	82.07
773.421	81.92
773.737	81.95
774.053	82.06
774.368	82.12
774.684	82.06
774.999	81.97
775.314	82.14
775.63	82.1
775.945	82.07
776.26	82.29
776.575	82.46
776.89	82.5
777.205	82.54
777.52	82.56
777.835	82.52
778.15	82.52
778.465	82.63
778.78	82.63
779.095	82.6
779.409	82.65
779.724	82.87
780.038	83.01
780.353	83.03
780.667	82.98
780.982	82.78
781.296	82.83
781.611	82.98
781.925	82.88
782.239	82.71
782.553	82.72
782.867	82.81
783.181	82.97
783.495	83.39
783.809	83.21
784.123	83.46
784.437	83.57
784.751	83.8
785.065	83.77
785.378	83.65
785.692	83.54
786.005	83.59
786.319	83.54
786.632	83.41
786.946	83.23
787.259	83.1
787.573	83.06
787.886	83.02
788.199	82.69
788.512	82.84
788.825	82.75
789.138	82.56
789.451	82.21
789.764	82.32
790.077	82.14
790.39	82.29
790.703	82.28
791.015	82.15
791.328	82.19
791.641	82.16
791.953	82.24
792.266	82.3
792.578	82.1
792.891	82.05
793.203	82.01
793.515	82.18
793.828	82.49
794.14	82.63
794.452	82.32
794.764	82.17
795.076	82.22
795.388	82.03
795.7	81.71
796.012	81.64
796.324	81.27
796.636	81.25
796.947	81.14
797.259	81.09
797.571	81.09
797.882	81.21
798.194	81.35
798.505	81.4
798.816	81.37
799.128	81.43
799.439	81.47
799.75	81.44
800.062	81.48
800.373	81.56
800.684	81.77
800.995	82.13
801.306	82.24
801.617	82.45
801.928	82.52
802.238	82.73
802.549	82.51
802.86	82.67
803.17	82.28
803.481	82.28
803.792	82.48
804.102	82.27
804.413	82.33
804.723	82.48
805.033	82.19
805.343	82.09
805.654	81.95
805.964	82.01
806.274	81.8
806.584	81.9
806.894	81.63
807.204	81.89
807.514	81.66
807.824	81.6
808.134	81.76
808.443	82.08
808.753	81.84
809.063	81.51
809.372	81.62
809.682	81.64
809.991	81.68
810.301	81.49
810.61	81.31
810.919	80.99
811.228	81.23
811.538	81.26
811.847	81.5
812.156	81.61
812.465	81.55
812.774	81.79
813.083	81.9
813.392	82.12
813.7	82.09
814.009	82.09
814.318	81.96
814.627	81.85
814.935	81.97
815.244	81.87
815.552	82.07
815.861	82.18
816.169	82.45
816.477	82.78
816.786	83.06
817.094	83.28
817.402	83.29
817.71	83.56
818.018	83.71
818.326	83.99
818.634	83.98
818.942	84.01
819.25	83.79
819.558	83.94
819.865	83.98
820.173	84.14
820.481	84.19
820.788	84.13
821.096	84.02
821.403	84.12
821.711	84.13
822.018	84.08
822.325	84.03
822.632	84.08
822.94	84.09
823.247	84.11
823.554	84.2
823.861	84.13
824.168	84.11
824.475	84.03
824.781	83.98
825.088	83.97
825.395	83.94
825.702	83.89
826.008	83.8
826.315	83.75
826.621	83.71
826.928	83.77
827.234	83.81
827.541	83.57
827.847	83.54
828.153	83.47
828.459	83.54
828.766	83.57
829.072	83.29
829.378	83.1
829.684	82.87
829.99	82.88
830.295	82.73
830.601	82.66
830.907	82.57
831.213	82.54
831.518	82.5
831.824	82.57
832.129	82.46
832.435	82.17
832.74	81.99
833.046	81.89
833.351	81.97
833.656	81.94
833.961	81.61
834.267	81.56
834.572	81.38
834.877	81.3
835.182	81.09
835.487	81.07
835.791	81.03
836.096	80.61
836.401	80.41
836.706	80.49
837.01	80.38
837.315	80.51
837.619	80.6
837.924	80.51
838.228	80.54
838.533	80.54
838.837	80.77
839.141	80.64
839.445	80.48
839.75	80.43
840.054	80.96
840.358	81.11
840.662	80.9
840.966	80.57
841.269	80.14
841.573	80.54
841.877	80.59
842.181	81.04
842.484	80.53
842.788	79.86
843.091	78.87
843.395	78.34
843.698	78.5
844.002	78.34
844.305	77.86
844.608	77.64
844.911	77.71
845.215	77.45
845.518	77.07
845.821	76.64
846.124	76.2
846.427	76.19
846.729	77.08
847.032	77.54
847.335	77.25
847.638	76.89
847.94	76.22
848.243	75.9
848.545	76.92
848.848	77.39
849.15	77.25
849.453	77
849.755	77.55
850.057	77.07
850.359	77.14
850.661	77.1
850.963	76.69
851.265	76.48
851.567	75.95
851.869	76.61
852.171	75.94
852.473	75.17
852.775	74.9
853.076	74.65
853.378	74.6
853.68	74.29
853.981	73.84
854.282	73.63
854.584	73.46
854.885	73.33
855.186	73.5
855.488	74
855.789	73.56
856.09	72.59
856.391	72.09
856.692	71.97
856.993	71.48
857.294	71.33
857.595	71.38
857.895	71.81
858.196	72.21
858.497	72.48
858.797	73.33
859.098	72.87
859.398	72.32
859.699	72.55
859.999	73.22
860.3	74
860.6	73.73
860.9	72.85
861.2	72.69
861.5	71.8
861.8	72.33
862.1	70.53
862.4	71.15
862.7	70.27
863	70.17
863.3	70.24
863.599	69.75
863.899	69.88
864.198	69.17
864.498	68.98
864.797	69.11
865.097	69.32
865.396	70.08
865.695	70.57
865.995	71
866.294	71.11
866.593	70.93
866.892	70.75
867.191	71.25
867.49	71.77
867.789	72.76
868.088	72.37
868.386	72.71
868.685	73.47
868.984	73.81
869.282	73.99
869.581	74.01
869.879	75.35
870.178	74.47
870.476	74.3
870.775	74.27
871.073	73.83
871.371	73.53
871.669	73.9
871.967	73.74
872.265	73.18
872.563	73.16
872.861	73.07
873.159	73.47
873.457	73.71
873.755	74.73
874.052	73.77
874.35	73.59
874.647	72.48
874.945	73.37
875.242	74.58
875.54	75.33
875.837	76.35
876.134	77.28
876.432	78.15
876.729	79.33
877.026	80.38
877.323	80.6
877.62	80.35
877.917	80.5
878.214	80.71
878.511	80.79
878.807	81.62
879.104	81.35
879.401	81.14
879.697	81.36
879.994	81.16
880.29	81.24
880.587	81.35
880.883	81.09
881.179	81.25
881.475	81.22
881.772	81.41
882.068	81.22
882.364	81.51
882.66	81.27
882.956	81.44
883.252	81.24
883.548	80.99
883.843	80.66
884.139	80.65
884.435	80.63
884.73	80.49
885.026	80.52
885.321	80.55
885.617	80.31
885.912	80.23
886.207	80.56
886.503	80.92
886.798	81.32
887.093	81.3
887.388	81.02
887.683	80.92
887.978	80.72
888.273	80.66
888.568	80.25
888.862	79.72
889.157	78.84
889.452	78.33
889.746	78.35
890.041	77.57
890.335	76.68
890.63	75.87
890.924	73.75
891.219	73.44
891.513	72.78
