Data from coltest_Reflection_007.txt Node
Date: Mon Feb 02 14:06:58 EST 2015
User: jamesohanlon
Spectrometer: JAZA0776
Autoset integration time: false
Trigger mode: 0
Integration Time (sec): 1.000000E-1
Scans to average: 10
Electric dark correction enabled: true
Nonlinearity correction enabled: false
Boxcar width: 10
Stray light correction enabled: false
XAxis mode: Wavelengths
Stop averaging: false
Number of Pixels in Spectrum: 2048
>>>>>Begin Spectral Data<<<<<
190.472	-7727.53
190.851	-4352.85
191.23	-2654.42
191.609	-1620.94
191.988	-566.01
192.366	-827.45
192.745	62.21
193.124	267.26
193.503	-3.19
193.882	169.8
194.26	318.85
194.639	273.24
195.018	497.75
195.397	617.45
195.775	270.46
196.154	371.57
196.532	85.49
196.911	70.98
197.29	150.09
197.668	-10.95
198.047	102.67
198.425	42.22
198.803	-80.16
199.182	15.65
199.56	-32.88
199.939	-81.23
200.317	91.73
200.695	-80.87
201.074	17.1
201.452	-5.24
201.83	20.9
202.208	-160.14
202.587	-60.66
202.965	-76.18
203.343	17
203.721	-209.77
204.099	10
204.477	4.5
204.855	-48.44
205.233	79.62
205.611	-18.06
205.989	-25.28
206.367	35.94
206.745	-111.82
207.123	50.1
207.501	-53.15
207.879	80.22
208.257	-56.85
208.635	42.79
209.012	-3.69
209.39	-41.59
209.768	-19.02
210.146	37.48
210.523	-1.99
210.901	47.64
211.278	27.03
211.656	4.22
212.034	-29.67
212.411	5.61
212.789	15.91
213.166	-15.33
213.544	4.81
213.921	-51.78
214.299	-65.14
214.676	11.8
215.053	113
215.431	-32.81
215.808	-0.01
216.185	120.97
216.563	54.45
216.94	44.52
217.317	-19.53
217.694	-83.62
218.072	45.01
218.449	-16.97
218.826	9.75
219.203	9.83
219.58	61.31
219.957	7.96
220.334	6.82
220.711	-19.01
221.088	19.92
221.465	-17.92
221.842	32.58
222.219	-16.76
222.596	-3.1
222.973	17.03
223.349	17.13
223.726	32.32
224.103	-3.62
224.48	35.6
224.856	21.63
225.233	27.02
225.61	0.21
225.986	19.73
226.363	22.23
226.74	42.11
227.116	29.16
227.493	3.87
227.869	20.43
228.246	31.08
228.622	44.02
228.999	62.88
229.375	60.6
229.751	79.13
230.128	62.16
230.504	52.95
230.88	43.13
231.257	42.02
231.633	26.45
232.009	26.18
232.385	19.38
232.761	14.57
233.138	18.01
233.514	20.66
233.89	23.02
234.266	16.44
234.642	21.64
235.018	20.83
235.394	19.81
235.77	17.98
236.146	20.89
236.522	16.19
236.898	14.35
237.274	19.67
237.649	17.63
238.025	20.7
238.401	17.98
238.777	15.84
239.152	22.64
239.528	12.46
239.904	17.08
240.279	16.52
240.655	16.92
241.031	18.54
241.406	20.33
241.782	25.59
242.157	29.47
242.533	28.43
242.908	36.39
243.284	30.89
243.659	28.45
244.034	25.87
244.41	22.12
244.785	21.19
245.16	17.05
245.536	20.52
245.911	21.9
246.286	26.02
246.661	29.64
247.037	39.57
247.412	41.91
247.787	42.32
248.162	38.77
248.537	32.94
248.912	27.66
249.287	26.88
249.662	19.06
250.037	17.2
250.412	15.27
250.787	16.52
251.162	17.7
251.537	18.78
251.911	19.92
252.286	21.87
252.661	18.77
253.036	17.72
253.41	15.67
253.785	13.47
254.16	10.91
254.534	10.27
254.909	11.19
255.284	10.82
255.658	12.25
256.033	14.21
256.407	11.23
256.782	13.89
257.156	14.79
257.53	16.38
257.905	14.87
258.279	16.57
258.654	19.4
259.028	25.85
259.402	30.05
259.776	32.35
260.151	36.1
260.525	36.83
260.899	33.78
261.273	25.83
261.647	22.57
262.021	19.49
262.395	18.96
262.769	16.22
263.143	17.72
263.517	16.91
263.891	15.37
264.265	12.83
264.639	12.83
265.013	10.51
265.387	12.18
265.761	12.05
266.135	14.79
266.508	14.83
266.882	16.35
267.256	15.7
267.629	17.51
268.003	16.06
268.377	17.52
268.75	19.07
269.124	18.43
269.497	16.21
269.871	16.61
270.244	15.85
270.618	19.33
270.991	19.44
271.365	23.48
271.738	25.02
272.111	24.71
272.485	23.29
272.858	22.76
273.231	21.01
273.604	20.92
273.978	18.28
274.351	17.14
274.724	17.38
275.097	16.61
275.47	15.99
275.843	16.25
276.216	16.61
276.589	16.89
276.962	17.9
277.335	17.89
277.708	15.81
278.081	16.58
278.454	17.03
278.827	16.04
279.2	15.1
279.572	14.44
279.945	15.3
280.318	16.27
280.691	16.57
281.063	16.43
281.436	17.81
281.808	19.27
282.181	20.23
282.554	20.23
282.926	18.37
283.299	17.22
283.671	17.6
284.044	17.23
284.416	18.71
284.788	17.67
285.161	17.82
285.533	19.64
285.905	19.98
286.278	19.81
286.65	20.2
287.022	20.25
287.394	18.75
287.766	16.61
288.139	15.05
288.511	14.68
288.883	14.58
289.255	15.94
289.627	14.16
289.999	15.83
290.371	16.08
290.743	17.93
291.115	16.67
291.486	16.6
291.858	14.7
292.23	13.58
292.602	13.93
292.974	14.37
293.345	14.45
293.717	14.51
294.089	16.54
294.46	17.31
294.832	18.61
295.204	17.01
295.575	18.21
295.947	18.01
296.318	19.15
296.69	19.85
297.061	19.84
297.433	20.44
297.804	19.79
298.175	18.57
298.547	17.26
298.918	15.92
299.289	15.59
299.66	15.3
300.032	14.84
300.403	14.74
300.774	15.45
301.145	14.41
301.516	14.29
301.887	13.82
302.258	13.17
302.629	13.53
303	12.86
303.371	11.98
303.742	13.31
304.113	12.66
304.484	12.42
304.855	12.8
305.226	13.62
305.596	12.71
305.967	13.67
306.338	13.8
306.708	13.51
307.079	13.14
307.45	13.13
307.82	13.51
308.191	14.17
308.561	14.74
308.932	14.14
309.302	14.98
309.673	14.65
310.043	15.48
310.414	17.36
310.784	15.54
311.154	15.47
311.525	14.09
311.895	14.46
312.265	13.25
312.635	13.11
313.006	13.97
313.376	12.8
313.746	13.4
314.116	15.05
314.486	14.86
314.856	16.78
315.226	14.95
315.596	12.85
315.966	12.64
316.336	11.66
316.706	12.04
317.076	12.42
317.445	10.44
317.815	13.32
318.185	12.65
318.555	11.91
318.924	11.76
319.294	13.44
319.664	11
320.033	10.55
320.403	11.65
320.772	10.33
321.142	9.68
321.511	11.05
321.881	9.9
322.25	11.51
322.62	11.18
322.989	12.2
323.358	10.93
323.728	13.51
324.097	14.39
324.466	14.33
324.836	13.12
325.205	12.51
325.574	11.75
325.943	13.6
326.312	13.29
326.681	14.1
327.05	12.49
327.419	12.41
327.788	10.32
328.157	9.11
328.526	11.33
328.895	9.95
329.264	10.64
329.633	10.47
330.001	13.45
330.37	10.66
330.739	10.86
331.108	10.75
331.476	10.94
331.845	10.3
332.214	9.31
332.582	11.09
332.951	12.12
333.319	13.7
333.688	13.29
334.056	12.17
334.425	11.11
334.793	11.1
335.161	11.05
335.53	10.73
335.898	12.04
336.266	11.06
336.635	11.33
337.003	10.33
337.371	10.2
337.739	9.44
338.107	10.51
338.475	10.27
338.843	9.35
339.212	9.65
339.58	8.96
339.947	9.07
340.315	10.03
340.683	10.76
341.051	9.4
341.419	10.78
341.787	11
342.155	9.68
342.522	10.32
342.89	10.14
343.258	10.73
343.625	10.53
343.993	10.8
344.361	10.02
344.728	10.93
345.096	11.04
345.463	10.99
345.831	10.63
346.198	11.8
346.566	10.46
346.933	11.48
347.3	11.12
347.668	8.13
348.035	9.39
348.402	8.51
348.769	9.43
349.137	10.52
349.504	9.95
349.871	9.47
350.238	10.08
350.605	8.71
350.972	8.79
351.339	9.05
351.706	8.91
352.073	9.04
352.44	8.67
352.807	8.56
353.174	8.1
353.54	9.09
353.907	9.57
354.274	9.94
354.641	9.23
355.007	9.78
355.374	9.42
355.741	9.81
356.107	8.43
356.474	10.15
356.84	9.41
357.207	10.63
357.573	10.95
357.94	11.16
358.306	10.49
358.673	9.93
359.039	9.59
359.405	8.74
359.771	9.36
360.138	10.94
360.504	10.7
360.87	12.41
361.236	12.15
361.602	13.72
361.968	14.14
362.335	12.51
362.701	12.26
363.067	10.12
363.432	10.47
363.798	8.85
364.164	8.83
364.53	9.6
364.896	9.49
365.262	8.37
365.628	8.76
365.993	9.24
366.359	8.93
366.725	8.21
367.09	8.21
367.456	8.6
367.821	8.17
368.187	8.67
368.553	8.04
368.918	6.83
369.283	8.94
369.649	8.37
370.014	9.05
370.38	8.89
370.745	9.84
371.11	9.69
371.475	9.07
371.841	8.93
372.206	8.72
372.571	8.41
372.936	8.53
373.301	8.46
373.666	9.1
374.031	8.18
374.396	9.18
374.761	8.42
375.126	8.73
375.491	9
375.856	8.67
376.221	10.3
376.586	10.79
376.95	11.55
377.315	9.73
377.68	10.63
378.044	9.74
378.409	9.09
378.774	8.67
379.138	8.55
379.503	8.19
379.867	8
380.232	8.95
380.596	9.18
380.961	9.14
381.325	7.88
381.689	7.95
382.054	8.3
382.418	8.9
382.782	7.7
383.146	8.56
383.51	8.49
383.875	8.99
384.239	9.81
384.603	8.21
384.967	8.46
385.331	8.4
385.695	8.9
386.059	8.62
386.423	8.2
386.786	8
387.15	8.95
387.514	8.56
387.878	7.86
388.242	8.7
388.605	7.89
388.969	8.78
389.333	8
389.696	8.18
390.06	8.12
390.423	8.38
390.787	9.02
391.15	9.41
391.514	9.49
391.877	10.21
392.241	8.94
392.604	9.53
392.967	9.56
393.331	8.91
393.694	9.81
394.057	9.69
394.42	9.46
394.783	9.44
395.146	9.33
395.51	9.21
395.873	9.2
396.236	8.18
396.599	7.95
396.962	8.28
397.324	8.47
397.687	8.22
398.05	8.05
398.413	7.83
398.776	7.46
399.138	7.63
399.501	8.1
399.864	6.97
400.227	8.05
400.589	7.15
400.952	7.27
401.314	7.08
401.677	7.92
402.039	8.81
402.402	7.42
402.764	8.68
403.126	8.49
403.489	9.14
403.851	8.74
404.213	10.55
404.576	10.05
404.938	8.65
405.3	9.37
405.662	8.93
406.024	8.89
406.386	7.92
406.748	9.22
407.11	8.42
407.472	8.63
407.834	8.51
408.196	8.19
408.558	7.61
408.92	8.28
409.282	8.32
409.643	8.59
410.005	9.09
410.367	8.48
410.728	8.67
411.09	7.77
411.452	7.24
411.813	7.32
412.175	7.33
412.536	7.37
412.898	7.55
413.259	6.55
413.62	7.63
413.982	6.82
414.343	7.11
414.704	6.63
415.066	7.21
415.427	7.05
415.788	6.54
416.149	8.03
416.51	6.44
416.871	7.69
417.232	7.63
417.593	7.72
417.954	7.19
418.315	8.53
418.676	7.88
419.037	8.45
419.398	8.36
419.759	8.64
420.119	8.76
420.48	9.66
420.841	9.76
421.201	10.04
421.562	10.02
421.923	9.68
422.283	9.87
422.644	9.1
423.004	9.07
423.365	9.71
423.725	9.43
424.086	10.21
424.446	9.72
424.806	9.67
425.166	9.75
425.527	9.3
425.887	8.7
426.247	9.01
426.607	8.51
426.967	7.92
427.327	7.39
427.687	7.61
428.047	7.54
428.407	6.93
428.767	6.75
429.127	6.98
429.487	7.08
429.847	7.45
430.207	6.88
430.566	7.22
430.926	7.37
431.286	7.24
431.645	8.2
432.005	7.42
432.365	7.43
432.724	7.28
433.084	7.6
433.443	8.47
433.803	8.04
434.162	8.26
434.521	7.96
434.881	8.25
435.24	7.83
435.599	7.39
435.958	7.51
436.318	7.87
436.677	7.28
437.036	7.56
437.395	7.42
437.754	7.69
438.113	8.1
438.472	8.33
438.831	7.77
439.19	8.19
439.549	8.48
439.908	8.71
440.266	8.78
440.625	9.27
440.984	8.97
441.343	9.23
441.701	8.94
442.06	7.97
442.418	8.04
442.777	7.87
443.136	7.81
443.494	8.12
443.852	7.54
444.211	7.63
444.569	7.9
444.928	7.87
445.286	8.35
445.644	8.52
446.002	8.31
446.361	9.31
446.719	8.79
447.077	9.28
447.435	9.28
447.793	9.13
448.151	9.32
448.509	8.74
448.867	9.33
449.225	9.13
449.583	8.47
449.94	7.99
450.298	8.1
450.656	7.95
451.014	7.85
451.371	7.94
451.729	7.56
452.087	8.13
452.444	8.67
452.802	7.9
453.159	7.53
453.517	7.91
453.874	6.88
454.232	7.45
454.589	7.16
454.946	7.44
455.304	6.87
455.661	6.68
456.018	7
456.375	7
456.732	7.53
457.09	7.52
457.447	7.4
457.804	7.73
458.161	8.28
458.518	8.35
458.875	9.12
459.231	9.91
459.588	10.34
459.945	10.82
460.302	10.79
460.659	10.52
461.015	9.69
461.372	8.93
461.729	8.37
462.085	8.19
462.442	8.08
462.798	7.66
463.155	7.65
463.511	7.34
463.868	7.18
464.224	7.32
464.58	7.33
464.937	7.78
465.293	7.49
465.649	7.83
466.005	7.73
466.362	7.97
466.718	8.2
467.074	8.54
467.43	8.39
467.786	8.32
468.142	7.58
468.498	8.15
468.854	8.21
469.21	8.26
469.565	7.96
469.921	7.81
470.277	7.83
470.633	7.99
470.988	7.8
471.344	7.96
471.7	8.14
472.055	7.87
472.411	7.53
472.766	8.14
473.122	7.97
473.477	8.17
473.832	7.75
474.188	7.53
474.543	7.53
474.898	7.54
475.254	7.31
475.609	6.93
475.964	6.67
476.319	6.86
476.674	7.1
477.029	6.17
477.384	6.35
477.739	6.26
478.094	6.18
478.449	6.21
478.804	6.06
479.159	5.61
479.513	5.81
479.868	5.61
480.223	5.93
480.578	5.94
480.932	6.01
481.287	6.09
481.641	6.58
481.996	7.05
482.35	7.55
482.705	8.6
483.059	10.88
483.414	12.89
483.768	15.05
484.122	15.2
484.477	13.76
484.831	11.82
485.185	10.08
485.539	8.51
485.893	8.16
486.247	8.23
486.601	8.53
486.955	9.04
487.309	9.73
487.663	10.15
488.017	10.1
488.371	9.55
488.725	8.69
489.078	8.11
489.432	7.42
489.786	6.86
490.14	6.91
490.493	7.17
490.847	8.03
491.2	9.11
491.554	10.28
491.907	10.6
492.261	9.77
492.614	8.94
492.967	8.28
493.321	7.75
493.674	6.94
494.027	6.62
494.38	6.46
494.734	6.38
495.087	6.51
495.44	7.03
495.793	6.97
496.146	7.67
496.499	8.19
496.852	7.75
497.205	8.1
497.558	8.19
497.91	7.79
498.263	7.78
498.616	7.75
498.969	8.09
499.321	7.82
499.674	7.7
500.027	7.82
500.379	7.92
500.732	7.65
501.084	8.19
501.436	7.34
501.789	7.75
502.141	7.49
502.494	7.92
502.846	7.59
503.198	7.8
503.55	7.71
503.902	8.22
504.255	8.08
504.607	7.79
504.959	7.74
505.311	7.81
505.663	8.01
506.015	8.21
506.367	7.83
506.718	8.26
507.07	8.09
507.422	8.38
507.774	7.69
508.125	8.38
508.477	8.47
508.829	8.42
509.18	8.76
509.532	8.81
509.883	8.76
510.235	8.58
510.586	8.98
510.938	8.47
511.289	8.57
511.64	8.47
511.992	8.7
512.343	8.7
512.694	8.79
513.045	8.55
513.396	8.51
513.747	8.01
514.098	8
514.449	8.01
514.8	8.27
515.151	8.13
515.502	8.01
515.853	8.23
516.204	7.96
516.555	8.24
516.905	8.8
517.256	9.12
517.607	9.11
517.957	9.94
518.308	10.24
518.658	10.25
519.009	10.24
519.359	9.68
519.71	9.06
520.06	8.97
520.41	8.09
520.761	7.86
521.111	7.61
521.461	7.28
521.811	6.83
522.162	6.57
522.512	6.87
522.862	6.54
523.212	6.56
523.562	6.69
523.912	6.69
524.262	6.99
524.611	7.32
524.961	7.81
525.311	8.11
525.661	8.54
526.01	8.48
526.36	8.74
526.71	8.65
527.059	9.01
527.409	9.89
527.758	11.31
528.108	12.78
528.457	14.7
528.807	15.23
529.156	14.31
529.505	12.66
529.855	11.21
530.204	9.81
530.553	9.05
530.902	8.16
531.251	8.01
531.6	7.86
531.949	7.74
532.298	8.18
532.647	8.98
532.996	9.75
533.345	10.15
533.694	10.14
534.043	9.09
534.391	8.39
534.74	7.84
535.089	7.68
535.437	7.24
535.786	7.63
536.135	8
536.483	8.52
536.832	8.75
537.18	8.49
537.528	8.15
537.877	7.96
538.225	7.48
538.573	7.28
538.921	7.31
539.27	7.32
539.618	7.97
539.966	8.5
540.314	9.16
540.662	10.9
541.01	12.24
541.358	13.63
541.706	13.53
542.054	13.01
542.402	12.23
542.749	11.57
543.097	11.54
543.445	10.84
543.792	10.62
544.14	9.88
544.488	9.35
544.835	9.08
545.183	9.11
545.53	8.84
545.878	9.18
546.225	9.77
546.572	9.92
546.92	9.88
547.267	9.78
547.614	9.75
547.961	9.29
548.308	8.97
548.655	9.06
549.002	8.88
549.349	8.87
549.696	8.68
550.043	8.76
550.39	9.1
550.737	9.78
551.084	9.19
551.431	9.6
551.777	9.66
552.124	9.97
552.471	9.99
552.817	10.76
553.164	10.69
553.51	10.66
553.857	10.81
554.203	10.58
554.55	10.85
554.896	10.89
555.242	11
555.589	10.66
555.935	10.61
556.281	10.93
556.627	11.17
556.973	11.49
557.319	10.72
557.665	10.78
558.011	11.2
558.357	11.36
558.703	11.34
559.049	10.8
559.395	11.09
559.741	11.34
560.086	11.5
560.432	11.49
560.778	12.14
561.123	11.97
561.469	12.45
561.815	12.35
562.16	12.46
562.506	12.14
562.851	11.78
563.196	12.03
563.542	12.4
563.887	12.73
564.232	12.39
564.577	13.13
564.922	13.66
565.268	13.91
565.613	13.9
565.958	15.21
566.303	15.55
566.648	15.64
566.993	15.28
567.337	14.91
567.682	14.31
568.027	14.17
568.372	14.55
568.717	14.36
569.061	14.61
569.406	14.88
569.75	14.68
570.095	15.12
570.439	15.31
570.784	16.09
571.128	16.67
571.473	16.72
571.817	17.84
572.161	18.13
572.505	18.24
572.85	18.66
573.194	18.35
573.538	18.6
573.882	18.7
574.226	18.65
574.57	19.52
574.914	19.51
575.258	19.85
575.602	20.36
575.946	20.36
576.289	20.17
576.633	20.04
576.977	19.84
577.32	20.05
577.664	19.37
578.008	19.5
578.351	19.66
578.695	20
579.038	20.16
579.382	19.55
579.725	19.76
580.068	20.05
580.411	20.15
580.755	20.52
581.098	20.66
581.441	21.36
581.784	22.24
582.127	22.14
582.47	23.08
582.813	23.08
583.156	23.77
583.499	23.84
583.842	24.08
584.185	24.01
584.527	25.01
584.87	25.15
585.213	25.75
585.556	25.8
585.898	26.32
586.241	27.25
586.583	26.91
586.926	27.79
587.268	28.12
587.61	28.71
587.953	29.7
588.295	29.91
588.637	30.21
588.98	31.09
589.322	31.45
589.664	32.55
590.006	32.74
590.348	32.93
590.69	32.77
591.032	33.36
591.374	33.11
591.716	33.61
592.058	32.67
592.399	32.67
592.741	33.58
593.083	34.43
593.424	35.07
593.766	36.7
594.108	38.1
594.449	38.63
594.791	39.85
595.132	39.75
595.474	41.43
595.815	43.76
596.156	45.23
596.497	47.07
596.839	49.93
597.18	50.82
597.521	49.56
597.862	47.8
598.203	46.15
598.544	44.37
598.885	42.8
599.226	41.97
599.567	41.25
599.908	41.78
600.249	40.74
600.589	41.3
600.93	42.22
601.271	42.85
601.611	42.96
601.952	44.58
602.292	46.02
602.633	48.29
602.973	50.08
603.314	53.36
603.654	55.32
603.995	58.63
604.335	61.79
604.675	64.12
605.015	65.86
605.355	65.46
605.695	62.6
606.036	60.95
606.376	58.74
606.715	56.9
607.055	55.58
607.395	55.83
607.735	55.55
608.075	56.54
608.415	58.51
608.754	61.09
609.094	64.22
609.434	66.59
609.773	67.25
610.113	67.23
610.452	66.51
610.792	65.71
611.131	63.06
611.471	62.82
611.81	61.77
612.149	60.73
612.488	61.07
612.828	60.67
613.167	61.38
613.506	59.99
613.845	60.34
614.184	61.27
614.523	60.33
614.862	60.92
615.201	62
615.539	60.46
615.878	61.71
616.217	62.86
616.556	64.18
616.894	64.68
617.233	66.21
617.571	67.27
617.91	68.65
618.248	68.33
618.587	69.44
618.925	69.72
619.264	69.29
619.602	70.45
619.94	69.46
620.278	69.21
620.617	69.46
620.955	70.38
621.293	71.4
621.631	69.31
621.969	70
622.307	70.01
622.645	69.01
622.983	70.17
623.32	70.86
623.658	71.15
623.996	71.83
624.334	73.1
624.671	73.81
625.009	74.65
625.346	77.03
625.684	79.33
626.021	80.48
626.359	84.07
626.696	86.5
627.033	86.88
627.371	86.59
627.708	85.18
628.045	84.23
628.382	82.13
628.719	80.23
629.056	78.79
629.394	78.31
629.73	77.85
630.067	77.27
630.404	76.33
630.741	75.09
631.078	75.83
631.415	75.4
631.751	75.28
632.088	75.9
632.425	75.01
632.761	75.73
633.098	76.71
633.434	77.93
633.771	79.93
634.107	80.64
634.443	79.33
634.78	81.83
635.116	80.25
635.452	79.79
635.788	79.55
636.124	80.41
636.46	79.9
636.797	79.55
637.133	78.42
637.468	79.72
637.804	78.09
638.14	78
638.476	77.97
638.812	78.12
639.147	78.22
639.483	76.73
639.819	77.95
640.154	77.03
640.49	77.86
640.825	78
641.161	77.16
641.496	75.89
641.832	76.97
642.167	77.89
642.502	77.15
642.837	77.32
643.172	77.85
643.508	79.17
643.843	78.5
644.178	77.76
644.513	77.31
644.848	80.23
645.183	78.64
645.517	79
645.852	79.27
646.187	79.36
646.522	80.93
646.856	82.92
647.191	80.79
647.526	82.57
647.86	80.67
648.195	82.96
648.529	81.05
648.863	82.69
649.198	82.42
649.532	82.56
649.866	82.58
650.201	82.67
650.535	82.5
650.869	82.73
651.203	83.47
651.537	83.68
651.871	83.7
652.205	83.43
652.539	81.03
652.873	82.46
653.206	79.52
653.54	79.56
653.874	78.06
654.208	77.28
654.541	75.38
654.875	76.21
655.208	76.83
655.542	76.19
655.875	76.39
656.209	76.28
656.542	76.7
656.875	78.98
657.208	79.52
657.542	80.8
657.875	82.82
658.208	85.99
658.541	88.46
658.874	92.65
659.207	97
659.54	100.55
659.873	99.33
660.206	96.84
660.538	95.37
660.871	92.51
661.204	89.66
661.536	88.33
661.869	85.44
662.202	85.5
662.534	83.11
662.867	80.03
663.199	79.56
663.531	78.14
663.864	77.84
664.196	76.72
664.528	75.67
664.86	77.23
665.193	75.51
665.525	77.58
665.857	77.57
666.189	77.41
666.521	79.15
666.853	79.56
667.184	79.66
667.516	80.73
667.848	79.96
668.18	82.19
668.511	81.95
668.843	84.06
669.175	85.04
669.506	84.58
669.838	85.33
670.169	84.42
670.5	83.51
670.832	83.98
671.163	84.37
671.494	82.97
671.826	83.58
672.157	82.43
672.488	80.84
672.819	80.22
673.15	82.33
673.481	81.32
673.812	81.1
674.143	79.27
674.473	77.03
674.804	77.53
675.135	80.18
675.466	78.13
675.796	77.02
676.127	78.66
676.457	78.34
676.788	78.39
677.118	77.19
677.449	78.46
677.779	79.84
678.109	81
678.44	81.95
678.77	82.46
679.1	85.36
679.43	84.79
679.76	86.21
680.09	89.66
680.42	91.16
680.75	92.29
681.08	90.96
681.41	90.39
681.74	87.94
682.07	88.12
682.399	89.43
682.729	88.85
683.059	86.28
683.388	83.62
683.718	82.47
684.047	84.22
684.376	78.59
684.706	80.53
685.035	79.99
685.364	79.55
685.694	80.07
686.023	78.3
686.352	79.24
686.681	79.28
687.01	83.12
687.339	84.85
687.668	85.2
687.997	85.85
688.326	87.33
688.655	85.39
688.983	85.81
689.312	84.76
689.641	82.58
689.969	83.24
690.298	83.84
690.626	83.81
690.955	80.23
691.283	82.3
691.612	79.35
691.94	78.75
692.268	76.82
692.596	76.51
692.925	76.25
693.253	76.16
693.581	74.35
693.909	72.67
694.237	72.78
694.565	73.09
694.893	74.46
695.22	72.62
695.548	73.12
695.876	74.94
696.204	76.41
696.531	79.11
696.859	80.69
697.186	83.61
697.514	85.98
697.841	89.99
698.169	97.97
698.496	104.18
698.823	107.26
699.151	110.55
699.478	109.71
699.805	106.55
700.132	102.08
700.459	99.9
700.786	95.68
701.113	91.11
701.44	89.62
701.767	86.19
702.094	78.82
702.421	80.71
702.747	78.32
703.074	73.36
703.401	76.13
703.727	76.03
704.054	73.45
704.38	72.68
704.707	72.22
705.033	73.35
705.359	72.28
705.686	72.77
706.012	74.77
706.338	74.38
706.664	74.48
706.99	75.57
707.317	79.87
707.643	79.1
707.968	78.78
708.294	82.63
708.62	82.07
708.946	81.56
709.272	83.38
709.598	82.8
709.923	82.75
710.249	85.89
710.574	86.34
710.9	88.14
711.225	91.21
711.551	92.61
711.876	88.37
712.201	90.49
712.527	87.27
712.852	88.01
713.177	87.11
713.502	86.51
713.827	84.82
714.152	85.92
714.477	85.83
714.802	85.07
715.127	86.9
715.452	86.71
715.777	88.31
716.101	88.81
716.426	89.51
716.751	87.85
717.075	86.08
717.4	84.78
717.724	83.15
718.049	85.27
718.373	81.77
718.698	82.93
719.022	80.91
719.346	81.85
719.67	81.04
719.994	81.93
720.318	80.67
720.643	78.97
720.967	77.28
721.29	77.43
721.614	78.27
721.938	74.52
722.262	78.06
722.586	77.11
722.909	76.28
723.233	78.12
723.557	77.2
723.88	75.76
724.204	77.88
724.527	77.68
724.851	80.08
725.174	76.65
725.497	79.96
725.82	79.57
726.144	81.5
726.467	79.92
726.79	80.62
727.113	84.43
727.436	83.02
727.759	85.99
728.082	85.84
728.405	87.64
728.728	86.72
729.05	84.73
729.373	85.51
729.696	84.62
730.018	84.5
730.341	84.07
730.663	86.42
730.986	87.45
731.308	88.02
731.631	90.31
731.953	91.78
732.275	90.24
732.597	89.79
732.919	88.04
733.242	86.81
733.564	91.12
733.886	86.77
734.208	84.6
734.529	82.5
734.851	82.56
735.173	81.95
735.495	78.63
735.817	81.82
736.138	78.1
736.46	73.9
736.781	76.68
737.103	76.59
737.424	81.46
737.746	80.83
738.067	79.96
738.388	84.55
738.71	85.79
739.031	84.27
739.352	86.34
739.673	90.15
739.994	87.48
740.315	85.45
740.636	86.37
740.957	87.69
741.278	85.89
741.599	84.81
741.919	80.98
742.24	84.15
742.561	80.07
742.881	76.94
743.202	79.57
743.522	76.53
743.843	79.03
744.163	79.08
744.484	78.94
744.804	77.68
745.124	78.55
745.444	77.44
745.765	77.61
746.085	79.29
746.405	74.29
746.725	80.3
747.045	79.41
747.364	77.05
747.684	77.45
748.004	82.73
748.324	79.99
748.644	80.01
748.963	82.01
749.283	83.29
749.602	80.85
749.922	82.34
750.241	81.14
750.561	81.73
750.88	84.49
751.199	83.52
751.518	83.49
751.838	81.64
752.157	81.33
752.476	82.37
752.795	81.56
753.114	83.2
753.433	85.69
753.752	84.03
754.07	83.4
754.389	82.32
754.708	81.1
755.027	77.53
755.345	83.39
755.664	81.83
755.982	81.01
756.301	78.34
756.619	79.84
756.938	79.55
757.256	82.51
757.574	80.93
757.892	79.19
758.21	78.63
758.529	82.35
758.847	82.12
759.165	78.87
759.483	78.28
759.8	82.39
760.118	80.13
760.436	77.91
760.754	77.51
761.072	77.8
761.389	79.86
761.707	82.49
762.024	77.13
762.342	80.37
762.659	82.74
762.977	89.54
763.294	105.55
763.611	120.78
763.928	134.81
764.246	132.28
764.563	118.6
764.88	112.81
765.197	104.24
765.514	99.18
765.831	91.32
766.148	87.59
766.464	85.63
766.781	80.97
767.098	76.65
767.415	76.78
767.731	75.13
768.048	77.68
768.364	72.94
768.681	72.43
768.997	71.44
769.314	71.56
769.63	66.5
769.946	71.65
770.262	67.37
770.578	69.37
770.894	74.19
771.211	75.72
771.527	74.73
771.842	77.64
772.158	74.59
772.474	73.7
772.79	79.27
773.106	72.39
773.421	76.41
773.737	75.61
774.053	73.5
774.368	93.47
774.684	77.19
774.999	72.97
775.314	77.6
775.63	78.49
775.945	79.02
776.26	80.39
776.575	76.59
776.89	79.78
777.205	79.32
777.52	81.14
777.835	78.13
778.15	79.38
778.465	75.98
778.78	80.86
779.095	80.09
779.409	79.88
779.724	79.32
780.038	86.14
780.353	93.75
780.667	81.46
780.982	88.83
781.296	85.52
781.611	87.39
781.925	78.51
782.239	81.13
782.553	84.67
782.867	77.36
783.181	76
783.495	77.76
783.809	74.99
784.123	78.3
784.437	89.42
784.751	84.56
785.065	80.95
785.378	75.08
785.692	73.88
786.005	75.42
786.319	76.88
786.632	73.98
786.946	80.73
787.259	75.99
787.573	86.84
787.886	89.11
788.199	96.57
788.512	96.38
788.825	101.02
789.138	101.16
789.451	91.7
789.764	94.72
790.077	91.98
790.39	87.55
790.703	82.83
791.015	81.61
791.328	78.78
791.641	79.28
791.953	74.3
792.266	79.72
792.578	76.78
792.891	69.92
793.203	73.19
793.515	77.27
793.828	78.34
794.14	77.63
794.452	77.35
794.764	68.62
795.076	81.73
795.388	80.57
795.7	81.28
796.012	92.29
796.324	88.01
796.636	98.13
796.947	93.12
797.259	86.37
797.571	84.96
797.882	84.35
798.194	84.95
798.505	84.97
798.816	84.6
799.128	83.79
799.439	78.46
799.75	84.03
800.062	81.09
800.373	79.3
800.684	82.83
800.995	83.41
801.306	75.32
801.617	80.56
801.928	90.38
802.238	73.27
802.549	77.51
802.86	74.24
803.17	72.7
803.481	85.51
803.792	82
804.102	81.72
804.413	81.87
804.723	86.44
805.033	82.89
805.343	84.32
805.654	84.44
805.964	82.25
806.274	83.72
806.584	93.69
806.894	94.03
807.204	87.33
807.514	90.27
807.824	83.26
808.134	83.99
808.443	81.92
808.753	78.81
809.063	72.7
809.372	76.06
809.682	86.45
809.991	70.91
810.301	79.25
810.61	85.76
810.919	83.16
811.228	80.44
811.538	81.1
811.847	79.65
812.156	79.03
812.465	79.75
812.774	82.85
813.083	78.89
813.392	72.28
813.7	76.67
814.009	71.88
814.318	70.15
814.627	65.33
814.935	76.55
815.244	79.07
815.552	74.11
815.861	65.17
816.169	54.29
816.477	59.45
816.786	52.27
817.094	45.9
817.402	46.64
817.71	38.66
818.018	36.56
818.326	36.55
818.634	40.32
818.942	34.17
819.25	37.2
819.558	45.36
819.865	43.71
820.173	54.7
820.481	51.92
820.788	51.73
821.096	55.05
821.403	54.73
821.711	69.56
822.018	110.18
822.325	170.42
822.632	223.09
822.94	244.26
823.247	225.9
823.554	187.54
823.861	163.87
824.168	136.03
824.475	118.38
824.781	100.34
825.088	94.12
825.395	82.67
825.702	75.09
826.008	68.37
826.315	60.35
826.621	62.86
826.928	71.47
827.234	85.03
827.541	103.02
827.847	104.1
828.153	88.94
828.459	77.17
828.766	73.21
829.072	68.33
829.378	65.59
829.684	60.8
829.99	56.03
830.295	58.03
830.601	54.33
830.907	49.23
831.213	45.95
831.518	46.87
831.824	48.59
832.129	45.37
832.435	49.72
832.74	59.5
833.046	57.17
833.351	64.96
833.656	84.57
833.961	114.59
834.267	126.15
834.572	134.57
834.877	126.14
835.182	120.94
835.487	113.38
835.791	97.69
836.096	92.51
836.401	93.84
836.706	85.84
837.01	72.45
837.315	75.52
837.619	65.64
837.924	54.42
838.228	59.93
838.533	63.45
838.837	46.86
839.141	54.21
839.445	55.58
839.75	54.87
840.054	67.65
840.358	72.52
840.662	83.16
840.966	83.91
841.269	77.72
841.573	100.75
841.877	86.96
842.181	86.06
842.484	82.82
842.788	72.33
843.091	81.9
843.395	80.04
843.698	77.89
844.002	66.11
844.305	78.19
844.608	72.02
844.911	74.63
845.215	75.69
845.518	71.49
845.821	74.34
846.124	79.37
846.427	74.9
846.729	78.58
847.032	75.02
847.335	78.76
847.638	80.03
847.94	71.42
848.243	69
848.545	84.75
848.848	99.72
849.15	74.2
849.453	60.52
849.755	94.91
850.057	62.6
850.359	64.36
850.661	88.88
850.963	74.11
851.265	63.01
851.567	46.91
851.869	66.39
852.171	71.99
852.473	81.23
852.775	76.96
853.076	70.95
853.378	68.98
853.68	73.8
853.981	69.92
854.282	71.58
854.584	61.17
854.885	67.37
855.186	91.26
855.488	69.72
855.789	59.75
856.09	63.95
856.391	86.11
856.692	87.1
856.993	62.96
857.294	68.66
857.595	71.88
857.895	68.74
858.196	65.08
858.497	121.1
858.797	66.89
859.098	59.96
859.398	50.28
859.699	65.54
859.999	58.2
860.3	83.39
860.6	80.58
860.9	54.03
861.2	60.14
861.5	84
861.8	74.82
862.1	68.53
862.4	52.77
862.7	63.25
863	60.65
863.3	92.31
863.599	55.81
863.899	73.89
864.198	65.18
864.498	54.48
864.797	70.54
865.097	63.39
865.396	84.99
865.695	93.34
865.995	68.26
866.294	65.85
866.593	67.51
866.892	86.54
867.191	79.97
867.49	77.05
867.789	68.8
868.088	95.34
868.386	71.89
868.685	97.93
868.984	80.1
869.282	69.15
869.581	62.51
869.879	73.34
870.178	33.69
870.476	81.78
870.775	78.76
871.073	57.16
871.371	93.5
871.669	87.56
871.967	75.75
872.265	114.77
872.563	56.86
872.861	99.33
873.159	55.6
873.457	77.35
873.755	75.97
874.052	55.93
874.35	58.64
874.647	89.68
874.945	73.38
875.242	66.74
875.54	85.4
875.837	72.52
876.134	58.59
876.432	55.64
876.729	23.9
877.026	38.92
877.323	25.17
877.62	22.13
877.917	35.31
878.214	34.36
878.511	32.62
878.807	33.91
879.104	47.11
879.401	28.19
879.697	27.39
879.994	36.76
880.29	26.64
880.587	32.26
880.883	44.68
881.179	67.22
881.475	112.79
881.772	137.58
882.068	187.68
882.364	227.57
882.66	246.32
882.956	222.07
883.252	210.03
883.548	205.78
883.843	166.44
884.139	161.25
884.435	135.36
884.73	117.88
885.026	95.55
885.321	76.69
885.617	70.52
885.912	53.39
886.207	46.12
886.503	38.99
886.798	44.06
887.093	38.8
887.388	33.99
887.683	35.45
887.978	29.91
888.273	39.05
888.568	26.79
888.862	32.72
889.157	33.48
889.452	40.43
889.746	39.05
890.041	45.85
890.335	52.97
890.63	52.76
890.924	46.43
891.219	43.72
891.513	52.73
