Data from coltest_Reflection_010.txt Node
Date: Mon Feb 02 14:08:42 EST 2015
User: jamesohanlon
Spectrometer: JAZA0776
Autoset integration time: false
Trigger mode: 0
Integration Time (sec): 1.000000E-1
Scans to average: 10
Electric dark correction enabled: true
Nonlinearity correction enabled: false
Boxcar width: 10
Stray light correction enabled: false
XAxis mode: Wavelengths
Stop averaging: false
Number of Pixels in Spectrum: 2048
>>>>>Begin Spectral Data<<<<<
190.472	110.25
190.851	110.38
191.23	110.59
191.609	104.05
191.988	374.33
192.366	3.64
192.745	-21.05
193.124	-68.12
193.503	119.08
193.882	95.71
194.26	41.18
194.639	1683.27
195.018	129.18
195.397	68.25
195.775	242.49
196.154	101.16
196.532	29.04
196.911	139.93
197.29	173.91
197.668	-155.17
198.047	-1506.45
198.425	-70.28
198.803	156.64
199.182	-47.52
199.56	-10.47
199.939	67.49
200.317	-121.41
200.695	-234.09
201.074	-294.5
201.452	-94.96
201.83	1719.19
202.208	-1087.04
202.587	16.4
202.965	-206.15
203.343	-14.57
203.721	-174.31
204.099	6.36
204.477	36.63
204.855	43.19
205.233	54.64
205.611	-61.76
205.989	53.64
206.367	56.91
206.745	-40.41
207.123	81.64
207.501	-55.21
207.879	20.69
208.257	21.3
208.635	40.9
209.012	53.02
209.39	-8.62
209.768	31.45
210.146	-85.46
210.523	47.33
210.901	-3224.02
211.278	197.58
211.656	-98.4
212.034	8.53
212.411	-263.47
212.789	17.09
213.166	-30.9
213.544	-76.07
213.921	-72.76
214.299	-9.18
214.676	-69.39
215.053	64
215.431	0.31
215.808	9.66
216.185	23.55
216.563	-12.84
216.94	-26.71
217.317	70.98
217.694	34.28
218.072	27.02
218.449	100.63
218.826	9.08
219.203	13.71
219.58	20.97
219.957	34.65
220.334	-179.05
220.711	-26.11
221.088	167.98
221.465	-14.85
221.842	-30.68
222.219	16.85
222.596	-43.99
222.973	132.7
223.349	36.7
223.726	24.32
224.103	4.74
224.48	32.37
224.856	11.34
225.233	109.64
225.61	27.88
225.986	17.7
226.363	41.48
226.74	72.97
227.116	20.66
227.493	17.84
227.869	29.12
228.246	12.27
228.622	22.28
228.999	27.61
229.375	28.96
229.751	29.68
230.128	31.36
230.504	26.73
230.88	27.57
231.257	19.24
231.633	29.52
232.009	23.59
232.385	27.33
232.761	26.8
233.138	16.37
233.514	19.13
233.89	20.99
234.266	21.75
234.642	27.96
235.018	28.08
235.394	19.43
235.77	26.92
236.146	18.46
236.522	29.93
236.898	13.5
237.274	23.37
237.649	18.28
238.025	22.8
238.401	23.61
238.777	24.4
239.152	26.39
239.528	18.36
239.904	25.52
240.279	24.78
240.655	21.58
241.031	22.3
241.406	25.66
241.782	21.01
242.157	20.09
242.533	20.08
242.908	21.99
243.284	18.53
243.659	18.47
244.034	21.77
244.41	18.15
244.785	18.04
245.16	16.17
245.536	17.95
245.911	16.38
246.286	19.82
246.661	18.36
247.037	17.66
247.412	18.87
247.787	18.87
248.162	18.33
248.537	18.05
248.912	17.45
249.287	19.83
249.662	18.17
250.037	17.22
250.412	18.29
250.787	16.52
251.162	16.64
251.537	15.15
251.911	17.36
252.286	15.77
252.661	13.39
253.036	15.28
253.41	15.31
253.785	15.34
254.16	16.46
254.534	15.69
254.909	15.39
255.284	17.82
255.658	17.77
256.033	15.87
256.407	14.6
256.782	16.28
257.156	15.9
257.53	15.5
257.905	12.81
258.279	15.16
258.654	16.19
259.028	16.28
259.402	15.4
259.776	14.96
260.151	16
260.525	15.83
260.899	15.68
261.273	15.72
261.647	14.63
262.021	14.51
262.395	16.9
262.769	14.65
263.143	15.81
263.517	15.58
263.891	15.85
264.265	16.05
264.639	17.84
265.013	15.61
265.387	16.81
265.761	15.25
266.135	14.4
266.508	15.62
266.882	16.66
267.256	14.01
267.629	16.37
268.003	16.12
268.377	14.05
268.75	15.68
269.124	16.35
269.497	16.5
269.871	14.88
270.244	16.18
270.618	14.56
270.991	16.28
271.365	15.57
271.738	14.37
272.111	14.72
272.485	14.24
272.858	14.52
273.231	15
273.604	14.23
273.978	14.57
274.351	15.49
274.724	15.23
275.097	13.51
275.47	14.09
275.843	15.48
276.216	15.16
276.589	15.24
276.962	15.56
277.335	13.1
277.708	14.82
278.081	14.91
278.454	13.3
278.827	14.49
279.2	13.95
279.572	14.99
279.945	14.54
280.318	14.75
280.691	14.75
281.063	14.62
281.436	15.05
281.808	14.54
282.181	14.64
282.554	14.27
282.926	13.77
283.299	14.04
283.671	15.43
284.044	14.73
284.416	13.38
284.788	14.78
285.161	13.98
285.533	13.74
285.905	13.78
286.278	14.45
286.65	14.74
287.022	14.58
287.394	14.94
287.766	14.61
288.139	14.84
288.511	14.28
288.883	13.85
289.255	14.4
289.627	14.54
289.999	13.46
290.371	14.59
290.743	14
291.115	13.73
291.486	13.31
291.858	13.38
292.23	13.02
292.602	13.27
292.974	13.86
293.345	13.27
293.717	12.72
294.089	14.31
294.46	13.42
294.832	13.78
295.204	13.41
295.575	13.56
295.947	12.77
296.318	12.73
296.69	13
297.061	12.65
297.433	13.23
297.804	13.03
298.175	13.68
298.547	12.27
298.918	11.75
299.289	12.66
299.66	12.69
300.032	12.69
300.403	13.46
300.774	12.65
301.145	13.46
301.516	12.49
301.887	13.63
302.258	13.21
302.629	11.74
303	11.53
303.371	12.24
303.742	12.13
304.113	11.88
304.484	13.18
304.855	13
305.226	12.98
305.596	12.54
305.967	11.85
306.338	13.08
306.708	11.43
307.079	11.94
307.45	10.4
307.82	11.7
308.191	13.08
308.561	12.11
308.932	11
309.302	11.93
309.673	11.58
310.043	11.6
310.414	12.27
310.784	11.95
311.154	11.24
311.525	10.61
311.895	11.19
312.265	10.77
312.635	11.93
313.006	12.18
313.376	12.69
313.746	10.72
314.116	12.36
314.486	12.04
314.856	11.41
315.226	12.5
315.596	12.19
315.966	10.79
316.336	10.22
316.706	11.89
317.076	10.35
317.445	10.96
317.815	12.42
318.185	10.39
318.555	10.66
318.924	10.31
319.294	10.93
319.664	10.33
320.033	10.39
320.403	10.65
320.772	9.63
321.142	9.88
321.511	9.82
321.881	9.7
322.25	10.5
322.62	8.71
322.989	9.94
323.358	9.02
323.728	9.48
324.097	10.78
324.466	9.63
324.836	10.23
325.205	8.89
325.574	9.41
325.943	9.68
326.312	10.17
326.681	10.31
327.05	8.85
327.419	8.81
327.788	8.82
328.157	10.1
328.526	10.2
328.895	9.65
329.264	9.82
329.633	8.96
330.001	11.59
330.37	10.37
330.739	9.41
331.108	10.75
331.476	9.63
331.845	8.99
332.214	10.02
332.582	10.08
332.951	9.7
333.319	9.48
333.688	10.06
334.056	8.29
334.425	8.82
334.793	9.6
335.161	10.3
335.53	8.68
335.898	8.71
336.266	9.9
336.635	9.26
337.003	9.34
337.371	10.08
337.739	9.34
338.107	9.3
338.475	9.59
338.843	9.59
339.212	9.25
339.58	7.67
339.947	8.76
340.315	8.54
340.683	9.64
341.051	9.28
341.419	8.87
341.787	9.56
342.155	7.98
342.522	8.17
342.89	8.24
343.258	8.88
343.625	8.47
343.993	9.18
344.361	9.12
344.728	9.61
345.096	9.12
345.463	8.41
345.831	8.13
346.198	9.32
346.566	8.53
346.933	8.94
347.3	9.26
347.668	8.59
348.035	9.08
348.402	9.17
348.769	8.32
349.137	8.47
349.504	9.23
349.871	8.17
350.238	8.87
350.605	8
350.972	9.92
351.339	9.15
351.706	8.88
352.073	9.02
352.44	8.08
352.807	8.05
353.174	8.91
353.54	8.98
353.907	8.66
354.274	9.2
354.641	8.21
355.007	8.98
355.374	9.57
355.741	8.72
356.107	8.51
356.474	8.33
356.84	9.41
357.207	9.39
357.573	8.63
357.94	8.65
358.306	8.86
358.673	8.86
359.039	8.2
359.405	8.7
359.771	8.62
360.138	8.87
360.504	8.96
360.87	8.61
361.236	8.95
361.602	9.26
361.968	8.86
362.335	8.37
362.701	8.36
363.067	8.93
363.432	8.3
363.798	8.96
364.164	8.26
364.53	9.36
364.896	7.89
365.262	8.56
365.628	7.6
365.993	8.62
366.359	9.1
366.725	8.25
367.09	8.27
367.456	8.88
367.821	8.94
368.187	8.17
368.553	8.13
368.918	8.09
369.283	7.87
369.649	8.54
370.014	9.02
370.38	8.78
370.745	8.63
371.11	7.89
371.475	9.11
371.841	9.37
372.206	8.39
372.571	8.01
372.936	9.11
373.301	8.34
373.666	8.31
374.031	8
374.396	8.34
374.761	7.97
375.126	8.58
375.491	7.94
375.856	7.87
376.221	8.04
376.586	8.34
376.95	8.24
377.315	7.97
377.68	7.99
378.044	7.59
378.409	7.34
378.774	8.59
379.138	8.29
379.503	7.99
379.867	7.88
380.232	8.24
380.596	8.11
380.961	8.6
381.325	9.41
381.689	7.99
382.054	8.44
382.418	8.1
382.782	8.12
383.146	7.65
383.51	8.26
383.875	8.17
384.239	8.34
384.603	7.47
384.967	7.46
385.331	8.09
385.695	8.4
386.059	8.43
386.423	8.46
386.786	7.8
387.15	7.59
387.514	7.88
387.878	7.72
388.242	7.26
388.605	8.16
388.969	7.23
389.333	7.73
389.696	7.88
390.06	8.48
390.423	8.03
390.787	8.67
391.15	7.7
391.514	7.79
391.877	8.22
392.241	7.56
392.604	8.44
392.967	7.69
393.331	6.97
393.694	7.55
394.057	7.66
394.42	8.48
394.783	7.91
395.146	8.11
395.51	9.18
395.873	7.93
396.236	7.86
396.599	8.36
396.962	8.1
397.324	7.82
397.687	7.19
398.05	7.89
398.413	8.45
398.776	8.27
399.138	7.34
399.501	7.78
399.864	8.21
400.227	8.5
400.589	7.9
400.952	7.49
401.314	7.33
401.677	7.2
402.039	7.86
402.402	7.54
402.764	7.56
403.126	8.09
403.489	8
403.851	8.19
404.213	7.44
404.576	8.11
404.938	8.04
405.3	7.92
405.662	7.37
406.024	7.84
406.386	8.01
406.748	7.46
407.11	7.73
407.472	7.92
407.834	7.89
408.196	7.36
408.558	7.57
408.92	7.96
409.282	7.67
409.643	8.03
410.005	8.04
410.367	7.28
410.728	8.44
411.09	7.4
411.452	7.43
411.813	9.01
412.175	7.56
412.536	7.62
412.898	8.68
413.259	7.91
413.62	7.55
413.982	8.15
414.343	7.62
414.704	8
415.066	7.5
415.427	7.7
415.788	7.14
416.149	7.49
416.51	7.63
416.871	7.5
417.232	7.69
417.593	7.34
417.954	7.77
418.315	7.75
418.676	7.45
419.037	7.44
419.398	7.81
419.759	7.26
420.119	8.15
420.48	7.75
420.841	7.94
421.201	7.3
421.562	7.78
421.923	7.58
422.283	7.86
422.644	7.63
423.004	7.59
423.365	7.71
423.725	7.83
424.086	7.67
424.446	7.96
424.806	7.84
425.166	7.24
425.527	8.32
425.887	7.74
426.247	7.83
426.607	8.09
426.967	7.89
427.327	7.5
427.687	8.01
428.047	7.58
428.407	8.19
428.767	7.48
429.127	7.59
429.487	7.66
429.847	7.95
430.207	7.39
430.566	7.93
430.926	7.49
431.286	7.78
431.645	8.23
432.005	7.89
432.365	7.7
432.724	7.88
433.084	8.04
433.443	8.11
433.803	7.78
434.162	7.84
434.521	7.83
434.881	7.77
435.24	7.78
435.599	7.84
435.958	7.68
436.318	8.25
436.677	8.36
437.036	8.24
437.395	8.03
437.754	7.77
438.113	7.57
438.472	7.79
438.831	7.53
439.19	7.75
439.549	7.85
439.908	7.84
440.266	7.48
440.625	7.84
440.984	8.01
441.343	7.6
441.701	7.78
442.06	7.74
442.418	7.74
442.777	7.47
443.136	7.8
443.494	7.81
443.852	7.65
444.211	8.1
444.569	7.79
444.928	8.21
445.286	8.19
445.644	7.6
446.002	7.53
446.361	8.32
446.719	7.8
447.077	7.73
447.435	7.81
447.793	7.94
448.151	8.27
448.509	7.89
448.867	8.19
449.225	7.65
449.583	7.35
449.94	7.87
450.298	7.89
450.656	7.58
451.014	7.76
451.371	8.08
451.729	7.88
452.087	8.14
452.444	7.79
452.802	7.53
453.159	8.28
453.517	7.98
453.874	7.69
454.232	7.7
454.589	7.89
454.946	8.32
455.304	7.91
455.661	7.59
456.018	7.57
456.375	7.54
456.732	8.04
457.09	8.46
457.447	7.59
457.804	7.54
458.161	7.97
458.518	7.98
458.875	7.86
459.231	7.62
459.588	7.32
459.945	7.72
460.302	7.89
460.659	7.88
461.015	7.81
461.372	7.91
461.729	7.52
462.085	7.94
462.442	7.86
462.798	7.73
463.155	7.93
463.511	7.84
463.868	8.03
464.224	7.78
464.58	8.14
464.937	7.7
465.293	7.87
465.649	7.69
466.005	8.51
466.362	8.03
466.718	8.05
467.074	8.16
467.43	7.76
467.786	8.08
468.142	7.78
468.498	7.92
468.854	7.86
469.21	8.02
469.565	7.68
469.921	7.77
470.277	7.51
470.633	8.05
470.988	7.91
471.344	7.77
471.7	8.04
472.055	7.88
472.411	8.02
472.766	8.11
473.122	7.68
473.477	7.51
473.832	8.05
474.188	7.91
474.543	7.88
474.898	7.92
475.254	7.68
475.609	7.76
475.964	7.79
476.319	8.28
476.674	7.86
477.029	7.74
477.384	7.87
477.739	7.99
478.094	7.79
478.449	8.25
478.804	7.97
479.159	7.76
479.513	7.96
479.868	7.88
480.223	8
480.578	7.92
480.932	8.13
481.287	8.03
481.641	7.75
481.996	7.78
482.35	7.69
482.705	7.57
483.059	7.63
483.414	7.65
483.768	7.66
484.122	7.76
484.477	7.83
484.831	7.89
485.185	7.77
485.539	7.64
485.893	7.89
486.247	7.78
486.601	7.58
486.955	7.73
487.309	7.64
487.663	7.82
488.017	7.88
488.371	7.77
488.725	7.95
489.078	7.89
489.432	7.93
489.786	7.98
490.14	8.05
490.493	7.99
490.847	8
491.2	7.91
491.554	7.81
491.907	7.71
492.261	7.85
492.614	8.18
492.967	8.1
493.321	7.94
493.674	8.12
494.027	8.2
494.38	7.86
494.734	8.35
495.087	8.25
495.44	7.87
495.793	7.98
496.146	8.41
496.499	8.19
496.852	8.16
497.205	8.36
497.558	7.89
497.91	7.91
498.263	8.29
498.616	7.95
498.969	8.12
499.321	7.75
499.674	7.9
500.027	8.02
500.379	8.09
500.732	7.89
501.084	8.25
501.436	8.58
501.789	8.45
502.141	8.48
502.494	8.58
502.846	8.24
503.198	8.48
503.55	8.26
503.902	8.16
504.255	8.24
504.607	8.26
504.959	8.23
505.311	7.86
505.663	8.51
506.015	8.48
506.367	8.41
506.718	8.42
507.07	8.12
507.422	8.95
507.774	8.35
508.125	8.36
508.477	8.24
508.829	8.4
509.18	8.26
509.532	8.29
509.883	8.53
510.235	8.09
510.586	8.2
510.938	8.37
511.289	8.33
511.64	8.33
511.992	8.16
512.343	8.4
512.694	8.33
513.045	8.3
513.396	8.52
513.747	8.09
514.098	8.36
514.449	8.32
514.8	8.45
515.151	8.67
515.502	8.61
515.853	8.54
516.204	8.45
516.555	8.36
516.905	8.49
517.256	8.29
517.607	8.52
517.957	8.48
518.308	8.49
518.658	8.15
519.009	8.62
519.359	8.47
519.71	8.95
520.06	8.51
520.41	8.34
520.761	8.64
521.111	8.65
521.461	8.59
521.811	8.43
522.162	8.59
522.512	8.46
522.862	8.71
523.212	8.23
523.562	8.78
523.912	8.46
524.262	8.35
524.611	8.51
524.961	8.45
525.311	8.66
525.661	8.48
526.01	8.3
526.36	8.61
526.71	8.54
527.059	8.61
527.409	8.66
527.758	8.41
528.108	8.33
528.457	8.31
528.807	8.4
529.156	8.48
529.505	8.58
529.855	8.64
530.204	8.62
530.553	8.71
530.902	8.79
531.251	8.79
531.6	8.53
531.949	9.01
532.298	8.53
532.647	8.83
532.996	8.68
533.345	8.74
533.694	8.79
534.043	8.67
534.391	8.95
534.74	8.69
535.089	8.88
535.437	9.07
535.786	9.01
536.135	8.84
536.483	9.02
536.832	8.67
537.18	8.96
537.528	9.1
537.877	9
538.225	9.25
538.573	9.11
538.921	9.35
539.27	9.25
539.618	9.26
539.966	9.27
540.314	9.12
540.662	9.19
541.01	9.15
541.358	9.13
541.706	9.17
542.054	9.37
542.402	9.33
542.749	9.21
543.097	9.27
543.445	9.29
543.792	9.49
544.14	9.38
544.488	9.92
544.835	9.54
545.183	9.87
545.53	9.26
545.878	9.46
546.225	9.81
546.572	9.75
546.92	10.06
547.267	9.87
547.614	9.91
547.961	9.93
548.308	10.11
548.655	10.03
549.002	10.03
549.349	9.75
549.696	10.03
550.043	9.8
550.39	10.15
550.737	10.8
551.084	10.12
551.431	10.43
551.777	9.99
552.124	10.25
552.471	10.01
552.817	10.3
553.164	10.6
553.51	10.37
553.857	10.09
554.203	10.23
554.55	10.75
554.896	10.8
555.242	10.74
555.589	11.13
555.935	10.95
556.281	11.18
556.627	11.33
556.973	11.12
557.319	10.88
557.665	11.3
558.011	11.56
558.357	11.92
558.703	11.58
559.049	11.38
559.395	11.57
559.741	11.71
560.086	11.82
560.432	12.73
560.778	12.02
561.123	11.73
561.469	12.47
561.815	12.28
562.16	12.13
562.506	12.3
562.851	12.59
563.196	12.73
563.542	12.58
563.887	12.26
564.232	13.07
564.577	12.66
564.922	13.11
565.268	13.29
565.613	12.95
565.958	13.39
566.303	13.55
566.648	13.53
566.993	13.31
567.337	13.94
567.682	14.23
568.027	13.84
568.372	14.16
568.717	14.54
569.061	14.51
569.406	14.9
569.75	15.12
570.095	15.41
570.439	15.41
570.784	15.55
571.128	15.28
571.473	15.45
571.817	15.75
572.161	15.91
572.505	16.14
572.85	16.35
573.194	16.58
573.538	16.84
573.882	17.14
574.226	16.93
574.57	17.7
574.914	16.83
575.258	17.54
575.602	17.85
575.946	18.67
576.289	18.32
576.633	18.93
576.977	18.62
577.32	18.82
577.664	19.05
578.008	19.64
578.351	19.81
578.695	19.97
579.038	21.09
579.382	20.98
579.725	21.45
580.068	21.3
580.411	20.73
580.755	21.3
581.098	21.91
581.441	21.67
581.784	23.09
582.127	22.88
582.47	22.68
582.813	23.93
583.156	24.76
583.499	24.5
583.842	24.62
584.185	25.01
584.527	25.51
584.87	26.13
585.213	26.17
585.556	26.47
585.898	26.29
586.241	26.86
586.583	27.53
586.926	27.28
587.268	28.14
587.61	28.93
587.953	29.1
588.295	28.54
588.637	29.79
588.98	29.44
589.322	30.97
589.664	30.87
590.006	31.84
590.348	31.96
590.69	32.61
591.032	32.97
591.374	33.27
591.716	33.5
592.058	34.78
592.399	34.97
592.741	34.52
593.083	36.25
593.424	36.24
593.766	36.09
594.108	36.74
594.449	37.49
594.791	37.42
595.132	37.59
595.474	38.68
595.815	39.93
596.156	41.19
596.497	40.08
596.839	40.91
597.18	41.17
597.521	42
597.862	42.58
598.203	43.02
598.544	42.91
598.885	45.51
599.226	45.19
599.567	44.88
599.908	45.35
600.249	45.97
600.589	46.39
600.93	47.3
601.271	47.17
601.611	47.83
601.952	48.96
602.292	48.69
602.633	49.3
602.973	50.97
603.314	51.08
603.654	50.28
603.995	51.88
604.335	51.68
604.675	52.2
605.015	52.3
605.355	53.52
605.695	53.9
606.036	54.32
606.376	55.33
606.715	54.83
607.055	55.44
607.395	56.08
607.735	56.47
608.075	57.33
608.415	57.85
608.754	57.22
609.094	58.31
609.434	59.3
609.773	59.85
610.113	59.36
610.452	59.43
610.792	60.57
611.131	61.41
611.471	62.13
611.81	61.47
612.149	61.75
612.488	62.29
612.828	63.35
613.167	63.27
613.506	63.27
613.845	64.1
614.184	64.67
614.523	64.46
614.862	64.21
615.201	65.38
615.539	66.34
615.878	65.63
616.217	66.38
616.556	66.43
616.894	66.62
617.233	66.6
617.571	67.44
617.91	67.49
618.248	69.12
618.587	69.57
618.925	69.73
619.264	70.9
619.602	68.35
619.94	69.99
620.278	69.78
620.617	69.89
620.955	68.8
621.293	70.16
621.631	70.2
621.969	71.11
622.307	71.43
622.645	71.24
622.983	71.6
623.32	71.28
623.658	72.2
623.996	71.5
624.334	72.42
624.671	71.6
625.009	72.88
625.346	72.62
625.684	71.94
626.021	72.19
626.359	73.11
626.696	72.7
627.033	73.04
627.371	73.57
627.708	74.76
628.045	72.77
628.382	73.9
628.719	75.13
629.056	73.76
629.394	74.36
629.73	76.09
630.067	75.11
630.404	75.09
630.741	75.21
631.078	76.55
631.415	75.97
631.751	74.95
632.088	77.08
632.425	76.22
632.761	76.24
633.098	76.72
633.434	76.05
633.771	76.43
634.107	77.95
634.443	75.68
634.78	77.07
635.116	77.58
635.452	77.43
635.788	77.28
636.124	76.55
636.46	77.06
636.797	78.39
637.133	76.69
637.468	76.76
637.804	77.81
638.14	78.87
638.476	78.85
638.812	78.12
639.147	78.38
639.483	78.66
639.819	78.7
640.154	78.94
640.49	79.03
640.825	79.35
641.161	79.03
641.496	77.83
641.832	78.61
642.167	79.11
642.502	78.85
642.837	78.89
643.172	79.39
643.508	79.91
643.843	79.31
644.178	80.06
644.513	79.12
644.848	76.79
645.183	78.95
645.517	79.85
645.852	78.85
646.187	77.54
646.522	79.26
646.856	79.62
647.191	78.44
647.526	78.66
647.86	78.7
648.195	80.09
648.529	78.13
648.863	80.86
649.198	80.76
649.532	80.65
649.866	79.5
650.201	79.68
650.535	79.1
650.869	79.86
651.203	79.58
651.537	80.06
651.871	81.8
652.205	80.27
652.539	79.04
652.873	78.18
653.206	80.67
653.54	80.3
653.874	80.32
654.208	81.39
654.541	80.84
654.875	79.95
655.208	79.79
655.542	79
655.875	80.01
656.209	78.81
656.542	81.59
656.875	80.55
657.208	81.33
657.542	80.95
657.875	79.73
658.208	80.1
658.541	82.11
658.874	80.54
659.207	82.07
659.54	80.06
659.873	81.32
660.206	81.9
660.538	81.6
660.871	80.8
661.204	80.68
661.536	81.99
661.869	80.9
662.202	80.74
662.534	81.35
662.867	79.3
663.199	81.38
663.531	80.85
663.864	83.02
664.196	83.38
664.528	80.48
664.86	80.26
665.193	79.99
665.525	80.17
665.857	81.2
666.189	82.27
666.521	83.89
666.853	80.43
667.184	81.36
667.516	80.64
667.848	79.27
668.18	80.82
668.511	82.14
668.843	81.09
669.175	80.41
669.506	79.51
669.838	83.15
670.169	79.47
670.5	81.31
670.832	82.02
671.163	83.19
671.494	81.11
671.826	80.93
672.157	80.32
672.488	81.69
672.819	81.91
673.15	81.72
673.481	79.83
673.812	82.36
674.143	82.06
674.473	80.04
674.804	82.4
675.135	77.49
675.466	80.3
675.796	80.97
676.127	80.84
676.457	80.12
676.788	82.55
677.118	82.36
677.449	81.58
677.779	79.76
678.109	79.11
678.44	79.51
678.77	79.72
679.1	80.57
679.43	82.29
679.76	83.64
680.09	80.33
680.42	80.73
680.75	81.8
681.08	79.69
681.41	81.77
681.74	79.87
682.07	78.86
682.399	81.15
682.729	80.54
683.059	80.67
683.388	81.37
683.718	80.58
684.047	80.17
684.376	81.17
684.706	82.95
685.035	79.89
685.364	82.56
685.694	81.3
686.023	79.91
686.352	81.54
686.681	81.04
687.01	81.64
687.339	83.7
687.668	82.26
687.997	82.14
688.326	81.16
688.655	81.28
688.983	82.3
689.312	78.89
689.641	82.45
689.969	79.37
690.298	79.42
690.626	80.18
690.955	80.39
691.283	79.94
691.612	81.54
691.94	82.84
692.268	82.27
692.596	82.74
692.925	80.82
693.253	79.69
693.581	82.54
693.909	80.82
694.237	81.51
694.565	80.42
694.893	82.82
695.22	79.32
695.548	81.65
695.876	82.9
696.204	79.82
696.531	81.85
696.859	81
697.186	82.89
697.514	83.43
697.841	82.98
698.169	80.36
698.496	83.19
698.823	82.24
699.151	82.57
699.478	81.22
699.805	80.74
700.132	83.77
700.459	80.7
700.786	84.23
701.113	82.51
701.44	83.41
701.767	81.62
702.094	82.99
702.421	80.99
702.747	81.8
703.074	82.44
703.401	83
703.727	82.15
704.054	80.35
704.38	83.41
704.707	81.37
705.033	82.25
705.359	84.43
705.686	81.22
706.012	82.59
706.338	84.45
706.664	79.6
706.99	85.02
707.317	81.99
707.643	82.89
707.968	81.38
708.294	80.66
708.62	80.31
708.946	81.87
709.272	82.18
709.598	83.48
709.923	83.09
710.249	80.82
710.574	82.39
710.9	84.37
711.225	83.87
711.551	82.95
711.876	81.45
712.201	81.61
712.527	82.86
712.852	82.28
713.177	83.61
713.502	82.12
713.827	85.63
714.152	81.59
714.477	83.23
714.802	79.72
715.127	80.74
715.452	82.4
715.777	79.9
716.101	82.59
716.426	81.93
716.751	83.18
717.075	83.15
717.4	88.52
717.724	80.68
718.049	81.35
718.373	82.29
718.698	83.99
719.022	82.89
719.346	82.01
719.67	81.18
719.994	83.01
720.318	83.66
720.643	83.16
720.967	84.16
721.29	84.02
721.614	81.85
721.938	81.89
722.262	84.76
722.586	83.11
722.909	84.91
723.233	83.18
723.557	84.79
723.88	83.29
724.204	79.8
724.527	82.73
724.851	81.86
725.174	85.01
725.497	86.55
725.82	81.19
726.144	80.73
726.467	80.52
726.79	78.97
727.113	81.19
727.436	81.9
727.759	81.27
728.082	81.8
728.405	84.86
728.728	79.24
729.05	82.5
729.373	85.74
729.696	83.89
730.018	86.35
730.341	82.25
730.663	82.7
730.986	84.74
731.308	83.38
731.631	82.44
731.953	84.76
732.275	82.92
732.597	80.95
732.919	81.88
733.242	81.88
733.564	83.58
733.886	81.65
734.208	80.29
734.529	79.99
734.851	84.19
735.173	82.71
735.495	78.44
735.817	82.45
736.138	80.19
736.46	80.61
736.781	86.18
737.103	80.52
737.424	82.44
737.746	79.12
738.067	79.55
738.388	85.65
738.71	79.76
739.031	83.63
739.352	82.85
739.673	79.84
739.994	82.42
740.315	80.99
740.636	85.43
740.957	81.23
741.278	78.32
741.599	83.48
741.919	81.84
742.24	81.82
742.561	88.2
742.881	81.31
743.202	85.54
743.522	79.51
743.843	86.24
744.163	83.11
744.484	83.54
744.804	81.43
745.124	83.53
745.444	80.5
745.765	82.18
746.085	83.94
746.405	84.55
746.725	79.78
747.045	76.49
747.364	85.86
747.684	82.38
748.004	78.42
748.324	81.3
748.644	84.41
748.963	81.44
749.283	86.56
749.602	83.24
749.922	82.13
750.241	81
750.561	80.44
750.88	81.79
751.199	80.12
751.518	84.45
751.838	81.96
752.157	80.49
752.476	82.43
752.795	85.71
753.114	80.85
753.433	81.94
753.752	81.75
754.07	80.75
754.389	80.51
754.708	77.72
755.027	83.92
755.345	79.53
755.664	80.77
755.982	81.91
756.301	85.28
756.619	82.77
756.938	81.26
757.256	81.1
757.574	77.57
757.892	80.89
758.21	79.66
758.529	83.07
758.847	84.85
759.165	81.51
759.483	83.57
759.8	83.19
760.118	83.94
760.436	83.08
760.754	82.77
761.072	82.51
761.389	85.4
761.707	81.86
762.024	82.17
762.342	81.59
762.659	83.74
762.977	84.03
763.294	85.23
763.611	84.78
763.928	80.96
764.246	85.49
764.563	84.51
764.88	84.72
765.197	81.66
765.514	83.31
765.831	81.66
766.148	82.11
766.464	83.82
766.781	81.96
767.098	82.51
767.415	82.9
767.731	79.46
768.048	85.69
768.364	80.85
768.681	82.46
768.997	82.16
769.314	82.2
769.63	81.55
769.946	89.11
770.262	82.46
770.578	76.44
770.894	86.74
771.211	81.05
771.527	82.09
771.842	79.67
772.158	80.81
772.474	80.93
772.79	79.62
773.106	82.37
773.421	78.69
773.737	78.92
774.053	77.64
774.368	79.17
774.684	78.79
774.999	84.41
775.314	81.09
775.63	79.99
775.945	79.77
776.26	81.73
776.575	78.51
776.89	90.37
777.205	86.91
777.52	80.45
777.835	80.4
778.15	83.11
778.465	88.21
778.78	76.59
779.095	78.4
779.409	84.02
779.724	91.79
780.038	82.58
780.353	80.32
780.667	79.86
780.982	82.34
781.296	86.73
781.611	89.46
781.925	78.35
782.239	81.63
782.553	82.91
782.867	81.41
783.181	85.26
783.495	85.17
783.809	81.06
784.123	87.94
784.437	92.64
784.751	84.32
785.065	93.89
785.378	81.44
785.692	84.3
786.005	80.05
786.319	84.82
786.632	86.27
786.946	78.42
787.259	84.32
787.573	77.44
787.886	84.42
788.199	77.55
788.512	85
788.825	86.49
789.138	80.5
789.451	75.89
789.764	89.42
790.077	82.25
790.39	81.2
790.703	87.12
791.015	84.76
791.328	77.6
791.641	79.98
791.953	83.62
792.266	92.75
792.578	84.69
792.891	80.69
793.203	80.14
793.515	84.8
793.828	83.05
794.14	84.23
794.452	69.96
794.764	85.07
795.076	77.95
795.388	78.5
795.7	82.69
796.012	82.6
796.324	75.79
796.636	83.35
796.947	80.91
797.259	93.46
797.571	86.6
797.882	90.56
798.194	87.78
798.505	86.32
798.816	88.05
799.128	75.92
799.439	76.37
799.75	79.12
800.062	80.22
800.373	76.89
800.684	82.49
800.995	75.15
801.306	81.64
801.617	79.51
801.928	79.95
802.238	86.39
802.549	81.36
802.86	90.94
803.17	71.72
803.481	83.32
803.792	84.45
804.102	78.6
804.413	78.24
804.723	83.52
805.033	83.25
805.343	77.67
805.654	83.93
805.964	81.36
806.274	84.29
806.584	74.79
806.894	78.93
807.204	86.93
807.514	79.72
807.824	79.22
808.134	76.79
808.443	75.37
808.753	85.53
809.063	81.08
809.372	87.16
809.682	84.48
809.991	88.28
810.301	78.62
810.61	78.03
810.919	84.29
811.228	84.83
811.538	73.76
811.847	79.8
812.156	81.78
812.465	76.91
812.774	95.64
813.083	82.41
813.392	89.12
813.7	89.25
814.009	87.19
814.318	78.71
814.627	84.62
814.935	84.9
815.244	81.06
815.552	84.33
815.861	89.78
816.169	75.66
816.477	95.81
816.786	82.7
817.094	80.15
817.402	88.73
817.71	91.58
818.018	77.16
818.326	87.05
818.634	85.69
818.942	80.88
819.25	81.33
819.558	86.43
819.865	87.28
820.173	78.76
820.481	83.03
820.788	86.51
821.096	86.48
821.403	76.33
821.711	79.85
822.018	82.42
822.325	83.56
822.632	83.5
822.94	83.08
823.247	83.52
823.554	81.53
823.861	83.04
824.168	82.39
824.475	84.57
824.781	87.63
825.088	82.14
825.395	84.4
825.702	83.73
826.008	83.66
826.315	81.6
826.621	85.91
826.928	82.57
827.234	81.68
827.541	81.42
827.847	86.93
828.153	89.5
828.459	80.96
828.766	89.44
829.072	88.91
829.378	86.87
829.684	89.91
829.99	85.28
830.295	82.7
830.601	81.88
830.907	92.55
831.213	82.83
831.518	82.12
831.824	89.77
832.129	88.26
832.435	77.43
832.74	84.07
833.046	81.6
833.351	88.04
833.656	83.41
833.961	81.33
834.267	80.06
834.572	85.51
834.877	80.7
835.182	88.79
835.487	84.46
835.791	84.09
836.096	79.34
836.401	84.72
836.706	83.55
837.01	93.41
837.315	84.83
837.619	90.64
837.924	91.08
838.228	95.01
838.533	96.73
838.837	83.41
839.141	68.15
839.445	91.87
839.75	76.58
840.054	90.26
840.358	80.94
840.662	91.3
840.966	87.77
841.269	70.86
841.573	95.65
841.877	83.66
842.181	76.48
842.484	71.06
842.788	74.59
843.091	70.61
843.395	77.26
843.698	68.4
844.002	91.82
844.305	82.54
844.608	52.61
844.911	84.06
845.215	75.95
845.518	99.41
845.821	86.72
846.124	82.3
846.427	83.81
846.729	101.55
847.032	84.04
847.335	67.76
847.638	81.74
847.94	118.29
848.243	91.93
848.545	89.77
848.848	84.13
849.15	72.21
849.453	68.42
849.755	79.8
850.057	78.94
850.359	102.41
850.661	71.22
850.963	77.09
851.265	80
851.567	101.78
851.869	74.08
852.171	93.58
852.473	100.48
852.775	110.1
853.076	108.38
853.378	64.27
853.68	107.19
853.981	85.91
854.282	57.03
854.584	85.69
854.885	80.58
855.186	106.35
855.488	59.19
855.789	69.31
856.09	77.63
856.391	65.44
856.692	111.15
856.993	81.47
857.294	57.89
857.595	67.31
857.895	79.61
858.196	88.51
858.497	66.87
858.797	98.09
859.098	119.41
859.398	88.61
859.699	92.88
859.999	69.64
860.3	79.47
860.6	76.91
860.9	53.99
861.2	101.38
861.5	63.59
861.8	123.89
862.1	112.78
862.4	82.3
862.7	72.4
863	113.97
863.3	60.57
863.599	97.56
863.899	132.92
864.198	90.77
864.498	68.48
864.797	71.13
865.097	86.25
865.396	118.07
865.695	100.3
865.995	71.97
866.294	77.04
866.593	101.69
866.892	83.51
867.191	69.78
867.49	56.12
867.789	76.19
868.088	71.03
868.386	92.58
868.685	63.88
868.984	106.83
869.282	80.01
869.581	74.06
869.879	60.09
870.178	83.76
870.476	126.13
870.775	106.04
871.073	60.49
871.371	147.79
871.669	85.53
871.967	87.27
872.265	98.36
872.563	96.51
872.861	80.02
873.159	130.22
873.457	95.22
873.755	75.41
874.052	131.69
874.35	58.8
874.647	88.19
874.945	103.72
875.242	83.71
875.54	80.73
875.837	86.76
876.134	102.51
876.432	90.32
876.729	98.23
877.026	65.54
877.323	81.28
877.62	100.72
877.917	87.66
878.214	56.3
878.511	50.9
878.807	55.18
879.104	98.05
879.401	114.12
879.697	76.85
879.994	74.1
880.29	96.1
880.587	81.99
880.883	84.01
881.179	77.07
881.475	86.91
881.772	84.16
882.068	81.28
882.364	80.68
882.66	86.82
882.956	86.09
883.252	85.34
883.548	84.09
883.843	83.99
884.139	82.98
884.435	81.58
884.73	92.84
885.026	89.66
885.321	81.49
885.617	97.69
885.912	90.76
886.207	72.73
886.503	88.39
886.798	82.55
887.093	79.23
887.388	96.37
887.683	91.51
887.978	85.39
888.273	113.36
888.568	106.12
888.862	89.06
889.157	71.02
889.452	57.11
889.746	64.98
890.041	81.19
890.335	80.28
890.63	111.08
890.924	120.88
891.219	76.14
891.513	99.02
