Data from coltest_Reflection_014.txt Node
Date: Mon Feb 02 14:12:01 EST 2015
User: jamesohanlon
Spectrometer: JAZA0776
Autoset integration time: false
Trigger mode: 0
Integration Time (sec): 1.000000E-1
Scans to average: 10
Electric dark correction enabled: true
Nonlinearity correction enabled: false
Boxcar width: 10
Stray light correction enabled: false
XAxis mode: Wavelengths
Stop averaging: false
Number of Pixels in Spectrum: 2048
>>>>>Begin Spectral Data<<<<<
190.472	-36.31
190.851	-39.63
191.23	10.77
191.609	12.81
191.988	25.46
192.366	12.78
192.745	-699.02
193.124	-215.38
193.503	-177.1
193.882	-183.29
194.26	-239.03
194.639	-45.12
195.018	-23.64
195.397	-15.29
195.775	-5.06
196.154	13.8
196.532	15.66
196.911	25.77
197.29	28.36
197.668	27.53
198.047	28.68
198.425	21.94
198.803	23.2
199.182	27.84
199.56	26.53
199.939	26.17
200.317	23.73
200.695	13.22
201.074	22.69
201.452	33.15
201.83	29.8
202.208	24.2
202.587	25.92
202.965	27.34
203.343	25.66
203.721	23.33
204.099	17.56
204.477	17.63
204.855	15.44
205.233	8.4
205.611	4.71
205.989	5.24
206.367	1.87
206.745	-2.62
207.123	-4.63
207.501	-4.91
207.879	3.21
208.257	3.07
208.635	6.45
209.012	-2.25
209.39	-8.5
209.768	-2.51
210.146	-0.66
210.523	-6.63
210.901	-7.05
211.278	-4.53
211.656	-5.46
212.034	-4.46
212.411	-12.08
212.789	-14.41
213.166	-14.86
213.544	-9.35
213.921	-7.87
214.299	-8.98
214.676	-4.06
215.053	-4.07
215.431	0.22
215.808	-8.07
216.185	-4.02
216.563	1.58
216.94	-0.1
217.317	2.89
217.694	8.94
218.072	8.71
218.449	12.54
218.826	12.37
219.203	12.58
219.58	12.7
219.957	14.26
220.334	21.39
220.711	22.63
221.088	24.17
221.465	28.41
221.842	27.01
222.219	29.47
222.596	30.39
222.973	31.43
223.349	29.34
223.726	32.23
224.103	30.4
224.48	29.71
224.856	29.58
225.233	29.79
225.61	28.62
225.986	29.38
226.363	29.33
226.74	29.37
227.116	29.4
227.493	29.8
227.869	29.55
228.246	28.73
228.622	29.15
228.999	28.72
229.375	27.6
229.751	27.39
230.128	27.3
230.504	27.17
230.88	27.08
231.257	27.38
231.633	26.77
232.009	26.87
232.385	26.87
232.761	26.74
233.138	26.32
233.514	26.37
233.89	25.92
234.266	25.45
234.642	25.38
235.018	25.49
235.394	25.25
235.77	24.98
236.146	25.13
236.522	24.9
236.898	24.99
237.274	24.9
237.649	24.79
238.025	24.36
238.401	24.17
238.777	24.09
239.152	23.57
239.528	23.52
239.904	23.22
240.279	23.08
240.655	22.87
241.031	22.83
241.406	22.76
241.782	22.68
242.157	22.49
242.533	22.21
242.908	21.89
243.284	21.69
243.659	21.53
244.034	21.24
244.41	21.04
244.785	20.9
245.16	20.91
245.536	20.76
245.911	20.75
246.286	20.7
246.661	20.54
247.037	20.55
247.412	20.45
247.787	20.32
248.162	20.24
248.537	20.27
248.912	20.16
249.287	20.01
249.662	19.91
250.037	19.86
250.412	19.85
250.787	19.85
251.162	19.78
251.537	19.74
251.911	19.66
252.286	19.47
252.661	19.47
253.036	19.21
253.41	19.18
253.785	19.09
254.16	18.92
254.534	18.77
254.909	18.63
255.284	18.51
255.658	18.53
256.033	18.42
256.407	18.41
256.782	18.34
257.156	18.27
257.53	18.28
257.905	18.28
258.279	18.2
258.654	18.04
259.028	18.09
259.402	18.06
259.776	18.15
260.151	18.19
260.525	18.06
260.899	18.03
261.273	18.07
261.647	18.05
262.021	18.09
262.395	18.14
262.769	18.19
263.143	18.18
263.517	18.11
263.891	18.14
264.265	18.06
264.639	18
265.013	18.05
265.387	17.98
265.761	17.9
266.135	17.96
266.508	18.14
266.882	18.01
267.256	17.98
267.629	17.9
268.003	17.84
268.377	17.9
268.75	17.95
269.124	17.93
269.497	17.88
269.871	17.76
270.244	17.79
270.618	17.72
270.991	17.74
271.365	17.73
271.738	17.7
272.111	17.66
272.485	17.7
272.858	17.74
273.231	17.72
273.604	17.83
273.978	17.82
274.351	17.77
274.724	17.86
275.097	17.9
275.47	17.9
275.843	17.93
276.216	17.98
276.589	17.95
276.962	17.86
277.335	17.87
277.708	17.9
278.081	17.93
278.454	17.91
278.827	17.89
279.2	17.96
279.572	17.99
279.945	17.98
280.318	17.92
280.691	17.94
281.063	18.07
281.436	18.02
281.808	18.02
282.181	17.96
282.554	17.88
282.926	17.8
283.299	17.74
283.671	17.64
284.044	17.6
284.416	17.58
284.788	17.65
285.161	17.65
285.533	17.69
285.905	17.58
286.278	17.52
286.65	17.46
287.022	17.37
287.394	17.24
287.766	17.2
288.139	17.2
288.511	17.13
288.883	17.04
289.255	16.97
289.627	16.94
289.999	16.93
290.371	16.9
290.743	16.92
291.115	16.99
291.486	17.02
291.858	17.01
292.23	17
292.602	16.9
292.974	16.89
293.345	16.79
293.717	16.74
294.089	16.71
294.46	16.66
294.832	16.63
295.204	16.64
295.575	16.62
295.947	16.56
296.318	16.48
296.69	16.41
297.061	16.36
297.433	16.31
297.804	16.26
298.175	16.17
298.547	16.09
298.918	16
299.289	16
299.66	15.92
300.032	15.85
300.403	15.8
300.774	15.7
301.145	15.68
301.516	15.65
301.887	15.67
302.258	15.67
302.629	15.59
303	15.54
303.371	15.53
303.742	15.55
304.113	15.55
304.484	15.56
304.855	15.58
305.226	15.55
305.596	15.55
305.967	15.57
306.338	15.59
306.708	15.58
307.079	15.47
307.45	15.45
307.82	15.45
308.191	15.42
308.561	15.42
308.932	15.4
309.302	15.4
309.673	15.41
310.043	15.43
310.414	15.49
310.784	15.52
311.154	15.49
311.525	15.41
311.895	15.36
312.265	15.29
312.635	15.18
313.006	15.16
313.376	15.13
313.746	15.17
314.116	15.11
314.486	15.02
314.856	14.98
315.226	14.93
315.596	14.82
315.966	14.84
316.336	14.79
316.706	14.67
317.076	14.65
317.445	14.57
317.815	14.51
318.185	14.4
318.555	14.29
318.924	14.22
319.294	14.27
319.664	14.32
320.033	14.32
320.403	14.36
320.772	14.29
321.142	14.26
321.511	14.17
321.881	14.05
322.25	13.95
322.62	13.93
322.989	13.96
323.358	13.97
323.728	13.96
324.097	13.93
324.466	13.94
324.836	13.89
325.205	13.91
325.574	13.79
325.943	13.79
326.312	13.77
326.681	13.72
327.05	13.6
327.419	13.49
327.788	13.44
328.157	13.46
328.526	13.37
328.895	13.36
329.264	13.32
329.633	13.29
330.001	13.34
330.37	13.36
330.739	13.25
331.108	13.21
331.476	13.1
331.845	13.1
332.214	13.2
332.582	13.18
332.951	13.11
333.319	13.09
333.688	13.12
334.056	13.1
334.425	13.13
334.793	13.11
335.161	13.09
335.53	13.1
335.898	13.05
336.266	13.12
336.635	13.04
337.003	13.04
337.371	13.1
337.739	13.17
338.107	13.14
338.475	13.14
338.843	13.19
339.212	13.23
339.58	13.18
339.947	13.05
340.315	13.03
340.683	13.01
341.051	13
341.419	12.98
341.787	13
342.155	12.99
342.522	12.98
342.89	12.96
343.258	12.92
343.625	12.88
343.993	12.81
344.361	12.8
344.728	12.81
345.096	12.75
345.463	12.69
345.831	12.72
346.198	12.75
346.566	12.74
346.933	12.7
347.3	12.65
347.668	12.69
348.035	12.66
348.402	12.64
348.769	12.64
349.137	12.58
349.504	12.58
349.871	12.63
350.238	12.57
350.605	12.58
350.972	12.58
351.339	12.59
351.706	12.62
352.073	12.61
352.44	12.64
352.807	12.66
353.174	12.68
353.54	12.62
353.907	12.62
354.274	12.56
354.641	12.55
355.007	12.61
355.374	12.55
355.741	12.49
356.107	12.49
356.474	12.51
356.84	12.58
357.207	12.58
357.573	12.5
357.94	12.53
358.306	12.54
358.673	12.57
359.039	12.55
359.405	12.56
359.771	12.57
360.138	12.51
360.504	12.5
360.87	12.48
361.236	12.5
361.602	12.46
361.968	12.46
362.335	12.5
362.701	12.42
363.067	12.44
363.432	12.55
363.798	12.52
364.164	12.51
364.53	12.5
364.896	12.43
365.262	12.45
365.628	12.42
365.993	12.41
366.359	12.34
366.725	12.4
367.09	12.33
367.456	12.3
367.821	12.36
368.187	12.36
368.553	12.35
368.918	12.27
369.283	12.29
369.649	12.28
370.014	12.23
370.38	12.25
370.745	12.23
371.11	12.2
371.475	12.24
371.841	12.18
372.206	12.07
372.571	12.09
372.936	12.17
373.301	12.2
373.666	12.23
374.031	12.19
374.396	12.16
374.761	12.24
375.126	12.26
375.491	12.22
375.856	12.28
376.221	12.35
376.586	12.41
376.95	12.39
377.315	12.42
377.68	12.39
378.044	12.43
378.409	12.47
378.774	12.43
379.138	12.43
379.503	12.47
379.867	12.53
380.232	12.53
380.596	12.5
380.961	12.49
381.325	12.45
381.689	12.49
382.054	12.47
382.418	12.45
382.782	12.41
383.146	12.43
383.51	12.35
383.875	12.23
384.239	12.21
384.603	12.2
384.967	12.23
385.331	12.23
385.695	12.24
386.059	12.23
386.423	12.25
386.786	12.18
387.15	12.18
387.514	12.16
387.878	12.17
388.242	12.11
388.605	12.12
388.969	12.12
389.333	12.12
389.696	12.12
390.06	12.09
390.423	12.12
390.787	12.09
391.15	12.1
391.514	12.2
391.877	12.2
392.241	12.19
392.604	12.18
392.967	12.24
393.331	12.25
393.694	12.23
394.057	12.2
394.42	12.25
394.783	12.25
395.146	12.25
395.51	12.28
395.873	12.35
396.236	12.34
396.599	12.39
396.962	12.38
397.324	12.43
397.687	12.48
398.05	12.48
398.413	12.5
398.776	12.46
399.138	12.43
399.501	12.42
399.864	12.45
400.227	12.46
400.589	12.41
400.952	12.41
401.314	12.42
401.677	12.42
402.039	12.44
402.402	12.45
402.764	12.48
403.126	12.52
403.489	12.48
403.851	12.54
404.213	12.51
404.576	12.49
404.938	12.42
405.3	12.4
405.662	12.42
406.024	12.43
406.386	12.47
406.748	12.51
407.11	12.52
407.472	12.5
407.834	12.48
408.196	12.42
408.558	12.44
408.92	12.42
409.282	12.47
409.643	12.47
410.005	12.48
410.367	12.48
410.728	12.45
411.09	12.45
411.452	12.41
411.813	12.43
412.175	12.43
412.536	12.47
412.898	12.47
413.259	12.45
413.62	12.46
413.982	12.43
414.343	12.41
414.704	12.43
415.066	12.44
415.427	12.47
415.788	12.51
416.149	12.49
416.51	12.48
416.871	12.44
417.232	12.43
417.593	12.43
417.954	12.41
418.315	12.39
418.676	12.39
419.037	12.43
419.398	12.45
419.759	12.46
420.119	12.48
420.48	12.5
420.841	12.5
421.201	12.5
421.562	12.51
421.923	12.52
422.283	12.53
422.644	12.53
423.004	12.51
423.365	12.53
423.725	12.53
424.086	12.57
424.446	12.62
424.806	12.64
425.166	12.65
425.527	12.66
425.887	12.68
426.247	12.7
426.607	12.68
426.967	12.68
427.327	12.68
427.687	12.7
428.047	12.7
428.407	12.72
428.767	12.77
429.127	12.83
429.487	12.87
429.847	12.87
430.207	12.87
430.566	12.92
430.926	12.9
431.286	12.95
431.645	12.96
432.005	12.95
432.365	12.93
432.724	12.89
433.084	12.92
433.443	12.95
433.803	12.96
434.162	12.99
434.521	12.97
434.881	12.99
435.24	13
435.599	13
435.958	13.02
436.318	12.96
436.677	12.94
437.036	12.92
437.395	12.9
437.754	12.89
438.113	12.86
438.472	12.85
438.831	12.85
439.19	12.81
439.549	12.84
439.908	12.86
440.266	12.87
440.625	12.88
440.984	12.87
441.343	12.88
441.701	12.87
442.06	12.9
442.418	12.88
442.777	12.88
443.136	12.89
443.494	12.89
443.852	12.88
444.211	12.88
444.569	12.88
444.928	12.92
445.286	12.93
445.644	12.94
446.002	12.98
446.361	12.95
446.719	12.96
447.077	12.97
447.435	12.99
447.793	13.03
448.151	13.01
448.509	12.98
448.867	12.99
449.225	13
449.583	12.98
449.94	13.02
450.298	13.02
450.656	13.02
451.014	13.03
451.371	13.06
451.729	13.09
452.087	13.13
452.444	13.12
452.802	13.15
453.159	13.17
453.517	13.15
453.874	13.22
454.232	13.18
454.589	13.14
454.946	13.13
455.304	13.14
455.661	13.12
456.018	13.16
456.375	13.17
456.732	13.18
457.09	13.21
457.447	13.21
457.804	13.23
458.161	13.23
458.518	13.2
458.875	13.21
459.231	13.2
459.588	13.16
459.945	13.18
460.302	13.18
460.659	13.17
461.015	13.21
461.372	13.19
461.729	13.24
462.085	13.25
462.442	13.24
462.798	13.23
463.155	13.24
463.511	13.25
463.868	13.26
464.224	13.3
464.58	13.27
464.937	13.28
465.293	13.26
465.649	13.28
466.005	13.34
466.362	13.35
466.718	13.35
467.074	13.36
467.43	13.37
467.786	13.4
468.142	13.38
468.498	13.34
468.854	13.33
469.21	13.33
469.565	13.33
469.921	13.36
470.277	13.34
470.633	13.37
470.988	13.4
471.344	13.39
471.7	13.34
472.055	13.38
472.411	13.37
472.766	13.38
473.122	13.38
473.477	13.37
473.832	13.36
474.188	13.4
474.543	13.4
474.898	13.37
475.254	13.35
475.609	13.36
475.964	13.39
476.319	13.39
476.674	13.39
477.029	13.41
477.384	13.43
477.739	13.43
478.094	13.41
478.449	13.36
478.804	13.35
479.159	13.34
479.513	13.3
479.868	13.28
480.223	13.25
480.578	13.23
480.932	13.21
481.287	13.22
481.641	13.21
481.996	13.21
482.35	13.23
482.705	13.23
483.059	13.24
483.414	13.25
483.768	13.25
484.122	13.24
484.477	13.25
484.831	13.23
485.185	13.23
485.539	13.25
485.893	13.25
486.247	13.25
486.601	13.26
486.955	13.28
487.309	13.29
487.663	13.3
488.017	13.31
488.371	13.31
488.725	13.31
489.078	13.33
489.432	13.34
489.786	13.34
490.14	13.35
490.493	13.37
490.847	13.36
491.2	13.38
491.554	13.4
491.907	13.4
492.261	13.42
492.614	13.43
492.967	13.42
493.321	13.44
493.674	13.47
494.027	13.49
494.38	13.5
494.734	13.51
495.087	13.53
495.44	13.56
495.793	13.59
496.146	13.59
496.499	13.59
496.852	13.59
497.205	13.6
497.558	13.58
497.91	13.59
498.263	13.59
498.616	13.57
498.969	13.59
499.321	13.61
499.674	13.63
500.027	13.64
500.379	13.69
500.732	13.72
501.084	13.7
501.436	13.69
501.789	13.72
502.141	13.74
502.494	13.76
502.846	13.76
503.198	13.8
503.55	13.8
503.902	13.78
504.255	13.79
504.607	13.78
504.959	13.8
505.311	13.77
505.663	13.82
506.015	13.85
506.367	13.84
506.718	13.84
507.07	13.84
507.422	13.87
507.774	13.83
508.125	13.83
508.477	13.83
508.829	13.87
509.18	13.86
509.532	13.85
509.883	13.83
510.235	13.82
510.586	13.82
510.938	13.84
511.289	13.88
511.64	13.91
511.992	13.92
512.343	13.93
512.694	13.95
513.045	13.94
513.396	13.91
513.747	13.91
514.098	13.9
514.449	13.88
514.8	13.86
515.151	13.87
515.502	13.84
515.853	13.85
516.204	13.82
516.555	13.83
516.905	13.84
517.256	13.87
517.607	13.88
517.957	13.88
518.308	13.89
518.658	13.86
519.009	13.83
519.359	13.82
519.71	13.82
520.06	13.83
520.41	13.83
520.761	13.85
521.111	13.85
521.461	13.85
521.811	13.85
522.162	13.83
522.512	13.84
522.862	13.85
523.212	13.84
523.562	13.84
523.912	13.83
524.262	13.81
524.611	13.79
524.961	13.79
525.311	13.79
525.661	13.77
526.01	13.78
526.36	13.82
526.71	13.82
527.059	13.82
527.409	13.82
527.758	13.82
528.108	13.83
528.457	13.85
528.807	13.85
529.156	13.86
529.505	13.88
529.855	13.87
530.204	13.9
530.553	13.92
530.902	13.93
531.251	13.94
531.6	13.96
531.949	13.98
532.298	13.99
532.647	14
532.996	14.04
533.345	14.06
533.694	14.04
534.043	14.07
534.391	14.09
534.74	14.11
535.089	14.14
535.437	14.16
535.786	14.15
536.135	14.18
536.483	14.19
536.832	14.19
537.18	14.21
537.528	14.21
537.877	14.23
538.225	14.24
538.573	14.27
538.921	14.28
539.27	14.3
539.618	14.34
539.966	14.37
540.314	14.38
540.662	14.4
541.01	14.43
541.358	14.44
541.706	14.44
542.054	14.46
542.402	14.46
542.749	14.48
543.097	14.5
543.445	14.51
543.792	14.54
544.14	14.6
544.488	14.64
544.835	14.68
545.183	14.73
545.53	14.8
545.878	14.83
546.225	14.89
546.572	14.94
546.92	14.97
547.267	14.99
547.614	15.04
547.961	15.1
548.308	15.12
548.655	15.15
549.002	15.17
549.349	15.19
549.696	15.25
550.043	15.29
550.39	15.35
550.737	15.39
551.084	15.46
551.431	15.47
551.777	15.53
552.124	15.57
552.471	15.6
552.817	15.63
553.164	15.65
553.51	15.71
553.857	15.76
554.203	15.79
554.55	15.82
554.896	15.85
555.242	15.88
555.589	15.95
555.935	16.03
556.281	16.11
556.627	16.2
556.973	16.26
557.319	16.38
557.665	16.44
558.011	16.51
558.357	16.56
558.703	16.66
559.049	16.73
559.395	16.83
559.741	16.89
560.086	16.96
560.432	17.08
560.778	17.17
561.123	17.24
561.469	17.36
561.815	17.5
562.16	17.63
562.506	17.72
562.851	17.83
563.196	17.95
563.542	18.05
563.887	18.14
564.232	18.24
564.577	18.28
564.922	18.39
565.268	18.5
565.613	18.63
565.958	18.73
566.303	18.83
566.648	18.88
566.993	19
567.337	19.14
567.682	19.21
568.027	19.32
568.372	19.44
568.717	19.54
569.061	19.67
569.406	19.82
569.75	19.98
570.095	20.15
570.439	20.3
570.784	20.42
571.128	20.58
571.473	20.72
571.817	20.92
572.161	21.09
572.505	21.25
572.85	21.39
573.194	21.56
573.538	21.75
573.882	21.95
574.226	22.09
574.57	22.26
574.914	22.46
575.258	22.69
575.602	22.9
575.946	23.15
576.289	23.33
576.633	23.55
576.977	23.76
577.32	23.98
577.664	24.21
578.008	24.51
578.351	24.77
578.695	25.03
579.038	25.28
579.382	25.54
579.725	25.83
580.068	26.12
580.411	26.41
580.755	26.68
581.098	27.01
581.441	27.37
581.784	27.68
582.127	28
582.47	28.24
582.813	28.58
583.156	28.9
583.499	29.21
583.842	29.52
584.185	29.9
584.527	30.22
584.87	30.57
585.213	30.93
585.556	31.3
585.898	31.66
586.241	31.97
586.583	32.34
586.926	32.67
587.268	33.1
587.61	33.5
587.953	33.88
588.295	34.26
588.637	34.6
588.98	35.02
589.322	35.41
589.664	35.84
590.006	36.17
590.348	36.58
590.69	37.02
591.032	37.48
591.374	37.9
591.716	38.35
592.058	38.81
592.399	39.26
592.741	39.75
593.083	40.26
593.424	40.81
593.766	41.34
594.108	41.84
594.449	42.28
594.791	42.74
595.132	43.12
595.474	43.54
595.815	43.95
596.156	44.34
596.497	44.77
596.839	45.22
597.18	45.75
597.521	46.21
597.862	46.73
598.203	47.13
598.544	47.55
598.885	47.99
599.226	48.44
599.567	48.95
599.908	49.41
600.249	49.98
600.589	50.57
600.93	51.16
601.271	51.78
601.611	52.38
601.952	52.98
602.292	53.55
602.633	54.03
602.973	54.52
603.314	54.98
603.654	55.44
603.995	55.84
604.335	56.19
604.675	56.55
605.015	56.86
605.355	57.27
605.695	57.71
606.036	58.17
606.376	58.62
606.715	59.03
607.055	59.46
607.395	59.88
607.735	60.24
608.075	60.64
608.415	61.05
608.754	61.49
609.094	61.82
609.434	62.22
609.773	62.61
610.113	63.05
610.452	63.43
610.792	63.82
611.131	64.21
611.471	64.63
611.81	65
612.149	65.43
612.488	65.82
612.828	66.23
613.167	66.63
613.506	66.97
613.845	67.33
614.184	67.79
614.523	68.18
614.862	68.57
615.201	68.92
615.539	69.21
615.878	69.51
616.217	69.91
616.556	70.29
616.894	70.63
617.233	70.8
617.571	71.12
617.91	71.28
618.248	71.54
618.587	71.72
618.925	72.03
619.264	72.27
619.602	72.56
619.94	72.77
620.278	73.03
620.617	73.36
620.955	73.62
621.293	73.86
621.631	74.05
621.969	74.34
622.307	74.54
622.645	74.87
622.983	75.08
623.32	75.26
623.658	75.5
623.996	75.71
624.334	75.98
624.671	76.14
625.009	76.4
625.346	76.56
625.684	76.79
626.021	76.95
626.359	77.15
626.696	77.24
627.033	77.42
627.371	77.56
627.708	77.66
628.045	77.84
628.382	78
628.719	78.18
629.056	78.3
629.394	78.41
629.73	78.46
630.067	78.55
630.404	78.7
630.741	78.8
631.078	78.95
631.415	79.12
631.751	79.26
632.088	79.41
632.425	79.61
632.761	79.74
633.098	79.89
633.434	79.99
633.771	80.12
634.107	80.24
634.443	80.33
634.78	80.48
635.116	80.55
635.452	80.61
635.788	80.68
636.124	80.78
636.46	80.94
636.797	81.04
637.133	81.23
637.468	81.29
637.804	81.51
638.14	81.58
638.476	81.65
638.812	81.76
639.147	81.92
639.483	81.95
639.819	81.99
640.154	82.06
640.49	82.08
640.825	82.13
641.161	82.25
641.496	82.22
641.832	82.34
642.167	82.37
642.502	82.55
642.837	82.63
643.172	82.7
643.508	82.8
643.843	82.89
644.178	82.95
644.513	83.13
644.848	83.04
645.183	83.12
645.517	83.13
645.852	83.32
646.187	83.25
646.522	83.34
646.856	83.37
647.191	83.48
647.526	83.55
647.86	83.71
648.195	83.78
648.529	83.95
648.863	83.97
649.198	84.03
649.532	83.94
649.866	84.06
650.201	84.11
650.535	84.03
650.869	84.1
651.203	84.04
651.537	84.04
651.871	84.14
652.205	84.23
652.539	84.32
652.873	84.28
653.206	84.31
653.54	84.41
653.874	84.51
654.208	84.59
654.541	84.67
654.875	84.63
655.208	84.59
655.542	84.65
655.875	84.66
656.209	84.74
656.542	84.82
656.875	84.82
657.208	84.84
657.542	84.99
657.875	85.06
658.208	85.15
658.541	85.17
658.874	85.1
659.207	85.11
659.54	85.13
659.873	85.15
660.206	85.23
660.538	85.16
660.871	85.22
661.204	85.03
661.536	85
661.869	85
662.202	85.06
662.534	85.04
662.867	85.03
663.199	85.01
663.531	85.06
663.864	85.06
664.196	85.1
664.528	85
664.86	84.96
665.193	84.91
665.525	84.86
665.857	84.93
666.189	84.86
666.521	84.86
666.853	84.79
667.184	84.69
667.516	84.66
667.848	84.54
668.18	84.67
668.511	84.69
668.843	84.83
669.175	84.76
669.506	84.81
669.838	84.77
670.169	84.75
670.5	84.73
670.832	84.72
671.163	84.73
671.494	84.83
671.826	84.88
672.157	84.91
672.488	84.96
672.819	84.96
673.15	84.97
673.481	84.94
673.812	85.05
674.143	85.12
674.473	85.07
674.804	85.11
675.135	85.05
675.466	85.04
675.796	84.95
676.127	84.93
676.457	84.94
676.788	84.89
677.118	84.87
677.449	84.91
677.779	84.85
678.109	84.8
678.44	84.91
678.77	84.85
679.1	84.78
679.43	84.58
679.76	84.61
680.09	84.71
680.42	84.84
680.75	84.89
681.08	84.9
681.41	84.98
681.74	85.05
682.07	85.12
682.399	85.09
682.729	85.09
683.059	85.11
683.388	85.03
683.718	85.09
684.047	85.16
684.376	85.07
684.706	85.04
685.035	85.05
685.364	84.94
685.694	85.13
686.023	85.28
686.352	85.47
686.681	85.44
687.01	85.39
687.339	85.43
687.668	85.42
687.997	85.5
688.326	85.52
688.655	85.45
688.983	85.45
689.312	85.48
689.641	85.58
689.969	85.66
690.298	85.81
690.626	85.86
690.955	85.91
691.283	86.02
691.612	86.1
691.94	86.28
692.268	86.32
692.596	86.09
692.925	86.16
693.253	86.16
693.581	86.27
693.909	86.23
694.237	86.05
694.565	86.09
694.893	86.04
695.22	86.1
695.548	86.17
695.876	86.13
696.204	86.2
696.531	86.21
696.859	86.29
697.186	86.2
697.514	86.27
697.841	86.3
698.169	86.37
698.496	86.35
698.823	86.32
699.151	86.45
699.478	86.52
699.805	86.43
700.132	86.49
700.459	86.52
700.786	86.62
701.113	86.75
701.44	86.72
701.767	86.74
702.094	86.64
702.421	86.56
702.747	86.67
703.074	86.68
703.401	86.69
703.727	86.57
704.054	86.59
704.38	86.63
704.707	86.55
705.033	86.48
705.359	86.61
705.686	86.65
706.012	86.4
706.338	86.52
706.664	86.6
706.99	86.51
707.317	86.34
707.643	86.33
707.968	86.36
708.294	86.28
708.62	86.32
708.946	86.38
709.272	86.57
709.598	86.57
709.923	86.67
710.249	86.88
710.574	86.85
710.9	86.98
711.225	87.05
711.551	87.06
711.876	87.02
712.201	87.14
712.527	87.16
712.852	87.29
713.177	87.17
713.502	87.17
713.827	87.26
714.152	87.6
714.477	87.58
714.802	87.44
715.127	87.48
715.452	87.39
715.777	87.43
716.101	87.2
716.426	87.17
716.751	87.03
717.075	86.8
717.4	86.92
717.724	86.9
718.049	86.85
718.373	86.75
718.698	86.87
719.022	86.68
719.346	86.6
719.67	86.58
719.994	86.7
720.318	86.48
720.643	86.51
720.967	86.31
721.29	86.2
721.614	86.41
721.938	86.43
722.262	86.56
722.586	86.82
722.909	86.82
723.233	86.77
723.557	86.87
723.88	86.87
724.204	86.95
724.527	86.87
724.851	86.77
725.174	86.95
725.497	86.94
725.82	87.07
726.144	86.93
726.467	87.09
726.79	87.11
727.113	87.42
727.436	87.45
727.759	87.45
728.082	87.55
728.405	87.51
728.728	87.52
729.05	87.47
729.373	87.41
729.696	87.43
730.018	87.53
730.341	87.45
730.663	87.35
730.986	87.2
731.308	87.17
731.631	87.21
731.953	87.09
732.275	87.16
732.597	87.09
732.919	87.12
733.242	87.13
733.564	87.08
733.886	86.93
734.208	86.84
734.529	86.96
734.851	87.17
735.173	87.18
735.495	87.17
735.817	87.16
736.138	87.07
736.46	87.14
736.781	87.22
737.103	87.26
737.424	87.43
737.746	87.6
738.067	87.85
738.388	87.89
738.71	88.06
739.031	87.89
739.352	87.8
739.673	87.72
739.994	87.6
740.315	87.56
740.636	87.61
740.957	87.57
741.278	87.33
741.599	87.15
741.919	86.99
742.24	87.09
742.561	86.96
742.881	86.76
743.202	86.94
743.522	86.7
743.843	86.63
744.163	86.72
744.484	86.68
744.804	86.49
745.124	86.6
745.444	86.6
745.765	86.59
746.085	86.52
746.405	86.8
746.725	86.67
747.045	87.04
747.364	87.1
747.684	87.24
748.004	87.23
748.324	87.47
748.644	87.4
748.963	87.37
749.283	87.37
749.602	87.64
749.922	87.48
750.241	87.68
750.561	87.81
750.88	87.84
751.199	87.8
751.518	87.71
751.838	87.84
752.157	87.62
752.476	87.89
752.795	88.08
753.114	88.06
753.433	88.08
753.752	87.75
754.07	87.55
754.389	87.31
754.708	87.59
755.027	87.43
755.345	87.43
755.664	87.31
755.982	87.69
756.301	87.28
756.619	87.42
756.938	87.13
757.256	86.98
757.574	86.8
757.892	86.92
758.21	87.07
758.529	87.01
758.847	87.02
759.165	86.88
759.483	86.96
759.8	87.16
760.118	87.28
760.436	87.55
760.754	87.7
761.072	87.97
761.389	87.99
761.707	87.93
762.024	88.09
762.342	88.15
762.659	88.08
762.977	88.42
763.294	88.31
763.611	88.55
763.928	88.62
764.246	88.56
764.563	88.48
764.88	88.45
765.197	88.24
765.514	88.36
765.831	88.33
766.148	88.18
766.464	88.01
766.781	88.03
767.098	87.8
767.415	87.75
767.731	87.43
768.048	87.31
768.364	87.24
768.681	87.11
768.997	87.3
769.314	87.18
769.63	87.01
769.946	87.25
770.262	87.03
770.578	86.97
770.894	86.67
771.211	86.6
771.527	86.45
771.842	86.6
772.158	86.5
772.474	86.39
772.79	86.4
773.106	86.26
773.421	86.33
773.737	86.47
774.053	86.51
774.368	86.7
774.684	86.52
774.999	86.55
775.314	86.7
775.63	86.41
775.945	86.47
776.26	86.45
776.575	86.22
776.89	86.18
777.205	86.11
777.52	86.77
777.835	87
778.15	86.8
778.465	86.87
778.78	86.95
779.095	86.96
779.409	87.5
779.724	87.47
780.038	87.05
780.353	86.66
780.667	86.72
780.982	86.77
781.296	86.93
781.611	87.15
781.925	86.74
782.239	86.76
782.553	86.65
782.867	86.2
783.181	85.99
783.495	86.24
783.809	86.65
784.123	86.57
784.437	86.66
784.751	87.01
785.065	86.8
785.378	86.97
785.692	87
786.005	86.51
786.319	86.15
786.632	86.48
786.946	86.47
787.259	86.24
787.573	86.14
787.886	85.9
788.199	85.85
788.512	86.2
788.825	85.82
789.138	85.9
789.451	86.22
789.764	86.15
790.077	86.1
790.39	86.02
790.703	85.78
791.015	85.59
791.328	85.26
791.641	85.26
791.953	84.99
792.266	85.23
792.578	84.96
792.891	85.74
793.203	85.97
793.515	86.27
793.828	85.91
794.14	85.84
794.452	85.97
794.764	85.73
795.076	85.64
795.388	85.55
795.7	85.34
796.012	85.19
796.324	85.17
796.636	85.18
796.947	85.04
797.259	84.92
797.571	84.8
797.882	85.19
798.194	85.15
798.505	85.25
798.816	84.93
799.128	84.81
799.439	84.11
799.75	83.71
800.062	83.51
800.373	84.15
800.684	84.78
800.995	84.75
801.306	84.61
801.617	84.83
801.928	85.51
802.238	85.48
802.549	85.48
802.86	85.3
803.17	85.36
803.481	85.38
803.792	85.89
804.102	85.52
804.413	85.54
804.723	85.65
805.033	85.63
805.343	85.61
805.654	85.83
805.964	86.33
806.274	86.19
806.584	86.24
806.894	85.94
807.204	85.71
807.514	85.13
807.824	84.86
808.134	84.69
808.443	84.57
808.753	84.87
809.063	85.14
809.372	85.82
809.682	85.44
809.991	85.53
810.301	85.16
810.61	85.61
810.919	85.52
811.228	85.2
811.538	85.24
811.847	84.85
812.156	85
812.465	85.11
812.774	85.46
813.083	85.9
813.392	85.77
813.7	85.73
814.009	86.53
814.318	87.32
814.627	87.15
814.935	86.92
815.244	86.46
815.552	86.39
815.861	86.2
816.169	86.34
816.477	86.36
816.786	87.11
817.094	86.95
817.402	86.7
817.71	86.54
818.018	86.96
818.326	87.9
818.634	88.2
818.942	87.72
819.25	87.4
819.558	86.71
819.865	86.91
820.173	86.99
820.481	87.11
820.788	87.1
821.096	87.12
821.403	87.21
821.711	87.34
822.018	87.38
822.325	87.42
822.632	87.4
822.94	87.2
823.247	86.99
823.554	87.12
823.861	87.12
824.168	87.15
824.475	86.96
824.781	86.95
825.088	86.75
825.395	86.61
825.702	86.47
826.008	86.49
826.315	86.39
826.621	86.42
826.928	86.26
827.234	86.01
827.541	86.25
827.847	86.13
828.153	85.98
828.459	85.59
828.766	85.46
829.072	85.71
829.378	85.96
829.684	86.17
829.99	85.73
830.295	85.87
830.601	86.05
830.907	86.01
831.213	85.52
831.518	85.94
831.824	86.34
832.129	86.97
832.435	87.5
832.74	87.61
833.046	87.13
833.351	87.25
833.656	87.91
833.961	87.45
834.267	87.35
834.572	87.17
834.877	87.52
835.182	86.82
835.487	86.49
835.791	86.37
836.096	85.88
836.401	86.46
836.706	85.91
837.01	85.96
837.315	86.2
837.619	86.73
837.924	86.51
838.228	86.5
838.533	86.64
838.837	86.44
839.141	86.6
839.445	86.42
839.75	85.82
840.054	84.78
840.358	83.62
840.662	83.35
840.966	82.61
841.269	82.78
841.573	83.66
841.877	83.03
842.181	83.54
842.484	83.76
842.788	83.18
843.091	83.39
843.395	82.06
843.698	81.44
844.002	80.16
844.305	80.29
844.608	80.23
844.911	79.7
845.215	78.73
845.518	78.22
845.821	77.71
846.124	77.18
846.427	76.65
846.729	77.35
847.032	77.62
847.335	78.57
847.638	78.13
847.94	78.65
848.243	79.51
848.545	78.53
848.848	78.81
849.15	79.46
849.453	79.77
849.755	80.16
850.057	81.2
850.359	81.81
850.661	80.51
850.963	82
851.265	81.58
851.567	82.78
851.869	81.77
852.171	83.8
852.473	85.45
852.775	86.18
853.076	86.25
853.378	84.58
853.68	84.95
853.981	83.66
854.282	83.23
854.584	81.64
854.885	82.54
855.186	83.19
855.488	80.94
855.789	80.74
856.09	81.53
856.391	81.16
856.692	80.53
856.993	81.08
857.294	80.32
857.595	79.84
857.895	79.81
858.196	80.79
858.497	79.07
858.797	78.96
859.098	79.26
859.398	80.33
859.699	81.84
859.999	80.37
860.3	81.22
860.6	81.33
860.9	82.38
861.2	82.72
861.5	81.39
861.8	81.2
862.1	82.18
862.4	82.12
862.7	80.24
863	81.4
863.3	81.93
863.599	79.65
863.899	80.54
864.198	78.04
864.498	77.53
864.797	77.56
865.097	75.73
865.396	74.47
865.695	72.65
865.995	71.64
866.294	72.17
866.593	73.36
866.892	73.08
867.191	73.95
867.49	72.76
867.789	72.97
868.088	74.72
868.386	72.98
868.685	72.26
868.984	73.45
869.282	74.13
869.581	73.67
869.879	74.49
870.178	74.21
870.476	75.97
870.775	74.56
871.073	73.94
871.371	75.15
871.669	77.01
871.967	77.98
872.265	79.94
872.563	81.82
872.861	81.25
873.159	80.36
873.457	79.88
873.755	82.17
874.052	82.28
874.35	80.91
874.647	83.1
874.945	84.68
875.242	83.51
875.54	82.61
875.837	82.83
876.134	85.03
876.432	85.09
876.729	85.61
877.026	87.09
877.323	89.83
877.62	90.98
877.917	90.59
878.214	89.78
878.511	87.63
878.807	85.67
879.104	86.08
879.401	86.29
879.697	86.22
879.994	85.22
880.29	85.31
880.587	85.84
880.883	85.32
881.179	85.46
881.475	85.71
881.772	85.79
882.068	86.11
882.364	85.59
882.66	85.46
882.956	85.72
883.252	85.65
883.548	85.1
883.843	85.1
884.139	84.99
884.435	85.01
884.73	85.41
885.026	85.63
885.321	85.21
885.617	84.93
885.912	85.05
886.207	85.25
886.503	85.17
886.798	85.13
887.093	85.52
887.388	85.07
887.683	84.36
887.978	83.16
888.273	82.02
888.568	81.5
888.862	81.23
889.157	79.92
889.452	80.39
889.746	80.76
890.041	78.6
890.335	78.57
890.63	78.7
890.924	77.77
891.219	77.96
891.513	79.23
