Data from coltest_Reflection_018.txt Node
Date: Mon Feb 02 14:18:44 EST 2015
User: jamesohanlon
Spectrometer: JAZA0776
Autoset integration time: false
Trigger mode: 0
Integration Time (sec): 1.000000E-1
Scans to average: 10
Electric dark correction enabled: true
Nonlinearity correction enabled: false
Boxcar width: 10
Stray light correction enabled: false
XAxis mode: Wavelengths
Stop averaging: false
Number of Pixels in Spectrum: 2048
>>>>>Begin Spectral Data<<<<<
190.472	-15.28
190.851	-20.81
191.23	-51.33
191.609	-15.72
191.988	2.18
192.366	1.37
192.745	345.98
193.124	47.76
193.503	6.67
193.882	-164.5
194.26	-144.85
194.639	-41.04
195.018	-55.95
195.397	-40.56
195.775	-27.77
196.154	-44.25
196.532	-49.89
196.911	-19.2
197.29	-39.38
197.668	-34.16
198.047	-54.21
198.425	-30.51
198.803	-39.74
199.182	-30.79
199.56	-39.59
199.939	-25.23
200.317	48.04
200.695	-607.94
201.074	-78.01
201.452	20.69
201.83	-8.97
202.208	11.07
202.587	43.32
202.965	42.23
203.343	35.33
203.721	52.95
204.099	52.05
204.477	50.64
204.855	62.97
205.233	56.52
205.611	53.5
205.989	62.91
206.367	75.92
206.745	65.98
207.123	71.52
207.501	71.82
207.879	85.17
208.257	100.74
208.635	102.24
209.012	108.29
209.39	103.54
209.768	87.46
210.146	74.06
210.523	62.17
210.901	55.63
211.278	62.98
211.656	46.08
212.034	38.6
212.411	40.72
212.789	37.2
213.166	32.31
213.544	38.3
213.921	36.86
214.299	39.25
214.676	50.81
215.053	56.55
215.431	70.17
215.808	69.28
216.185	69.09
216.563	75.32
216.94	66.44
217.317	58.86
217.694	63.18
218.072	64.54
218.449	60.91
218.826	68.68
219.203	63.64
219.58	64.02
219.957	62.89
220.334	59.81
220.711	54.41
221.088	53.63
221.465	49.75
221.842	50.06
222.219	50.17
222.596	50.43
222.973	49.29
223.349	42.28
223.726	39.67
224.103	39.88
224.48	38.6
224.856	43.95
225.233	48.19
225.61	48.34
225.986	49.76
226.363	51.17
226.74	51.69
227.116	52.07
227.493	52.65
227.869	53.51
228.246	53.53
228.622	55.46
228.999	56.56
229.375	55.68
229.751	54.9
230.128	55.15
230.504	56.03
230.88	55.37
231.257	57.15
231.633	57.91
232.009	58.23
232.385	58.29
232.761	58.31
233.138	57.55
233.514	57.14
233.89	56.87
234.266	56.24
234.642	55.32
235.018	54.96
235.394	54.41
235.77	54.37
236.146	53.45
236.522	53.37
236.898	52.58
237.274	53.12
237.649	52.54
238.025	51.25
238.401	49.73
238.777	48.88
239.152	47.46
239.528	46.5
239.904	45.53
240.279	45.31
240.655	44.78
241.031	44.48
241.406	43.97
241.782	43.34
242.157	43.31
242.533	42.77
242.908	42.31
243.284	41.85
243.659	41.49
244.034	41.23
244.41	40.53
244.785	39.98
245.16	39.59
245.536	39.28
245.911	39.02
246.286	38.67
246.661	38.41
247.037	38.15
247.412	37.96
247.787	37.89
248.162	37.52
248.537	37.03
248.912	36.84
249.287	36.81
249.662	36.76
250.037	36.59
250.412	36.56
250.787	36.2
251.162	35.94
251.537	35.56
251.911	35.16
252.286	34.69
252.661	34.51
253.036	34.32
253.41	34.22
253.785	33.8
254.16	33.68
254.534	33.72
254.909	33.47
255.284	33.62
255.658	33.29
256.033	32.77
256.407	32.8
256.782	32.44
257.156	32.21
257.53	32
257.905	31.83
258.279	31.69
258.654	31.86
259.028	31.79
259.402	31.73
259.776	31.69
260.151	31.89
260.525	31.97
260.899	31.93
261.273	31.79
261.647	31.97
262.021	32.04
262.395	31.93
262.769	31.84
263.143	31.63
263.517	31.62
263.891	31.92
264.265	31.91
264.639	31.96
265.013	32.04
265.387	32.11
265.761	32.09
266.135	32.25
266.508	32.15
266.882	32.22
267.256	32.14
267.629	32.21
268.003	32.07
268.377	31.87
268.75	31.83
269.124	32
269.497	31.86
269.871	31.69
270.244	31.76
270.618	31.91
270.991	31.82
271.365	31.74
271.738	31.53
272.111	31.48
272.485	31.45
272.858	31.55
273.231	31.53
273.604	31.58
273.978	31.56
274.351	31.46
274.724	31.56
275.097	31.54
275.47	31.48
275.843	31.6
276.216	31.82
276.589	31.88
276.962	31.73
277.335	31.67
277.708	31.73
278.081	31.61
278.454	31.58
278.827	31.67
279.2	31.82
279.572	32.02
279.945	32.12
280.318	32.16
280.691	32.14
281.063	32.1
281.436	32.21
281.808	32.18
282.181	32.31
282.554	32.17
282.926	32.25
283.299	32.19
283.671	32.09
284.044	32.05
284.416	31.92
284.788	31.88
285.161	31.98
285.533	32.04
285.905	32.06
286.278	32.06
286.65	31.93
287.022	31.83
287.394	31.62
287.766	31.47
288.139	31.41
288.511	31.34
288.883	31.34
289.255	31.17
289.627	30.99
289.999	30.76
290.371	30.62
290.743	30.42
291.115	30.5
291.486	30.37
291.858	30.16
292.23	30.13
292.602	30.1
292.974	29.92
293.345	29.68
293.717	29.58
294.089	29.41
294.46	29.35
294.832	29.19
295.204	29.22
295.575	29.12
295.947	29.01
296.318	28.83
296.69	28.69
297.061	28.5
297.433	28.49
297.804	28.49
298.175	28.49
298.547	28.38
298.918	28.17
299.289	28.08
299.66	28.04
300.032	27.96
300.403	27.87
300.774	27.8
301.145	27.77
301.516	27.66
301.887	27.62
302.258	27.59
302.629	27.61
303	27.5
303.371	27.46
303.742	27.45
304.113	27.55
304.484	27.57
304.855	27.6
305.226	27.31
305.596	27.2
305.967	27.08
306.338	27
306.708	26.89
307.079	26.81
307.45	26.72
307.82	26.69
308.191	26.57
308.561	26.45
308.932	26.3
309.302	26.2
309.673	26
310.043	25.74
310.414	25.57
310.784	25.38
311.154	25.14
311.525	24.96
311.895	24.71
312.265	24.48
312.635	24.25
313.006	24.22
313.376	24.03
313.746	23.91
314.116	23.69
314.486	23.53
314.856	23.45
315.226	23.06
315.596	22.56
315.966	22.26
316.336	21.92
316.706	21.61
317.076	21.21
317.445	20.84
317.815	20.6
318.185	20.15
318.555	19.93
318.924	19.75
319.294	19.54
319.664	19.31
320.033	19.02
320.403	18.8
320.772	18.52
321.142	18.18
321.511	17.87
321.881	17.72
322.25	17.58
322.62	17.17
322.989	17.09
323.358	16.97
323.728	16.9
324.097	16.83
324.466	16.76
324.836	16.82
325.205	16.88
325.574	16.82
325.943	16.86
326.312	16.57
326.681	16.47
327.05	16.3
327.419	15.94
327.788	15.71
328.157	15.77
328.526	15.79
328.895	15.84
329.264	15.7
329.633	15.62
330.001	15.5
330.37	15.48
330.739	15.42
331.108	15.46
331.476	15.35
331.845	15.24
332.214	15.13
332.582	15
332.951	14.95
333.319	14.95
333.688	14.91
334.056	15.04
334.425	14.93
334.793	14.88
335.161	14.96
335.53	15.01
335.898	14.79
336.266	14.76
336.635	14.63
337.003	14.66
337.371	14.6
337.739	14.47
338.107	14.4
338.475	14.31
338.843	14.12
339.212	13.94
339.58	13.83
339.947	13.79
340.315	13.66
340.683	13.66
341.051	13.55
341.419	13.6
341.787	13.46
342.155	13.37
342.522	13.31
342.89	13.39
343.258	13.35
343.625	13.34
343.993	13.21
344.361	13.19
344.728	13.04
345.096	12.94
345.463	12.92
345.831	12.88
346.198	12.82
346.566	12.76
346.933	12.89
347.3	12.88
347.668	12.85
348.035	12.85
348.402	12.63
348.769	12.64
349.137	12.48
349.504	12.41
349.871	12.38
350.238	12.37
350.605	12.26
350.972	12.32
351.339	12.27
351.706	12.25
352.073	12.24
352.44	12.26
352.807	12.24
353.174	12.25
353.54	12.29
353.907	12.2
354.274	12.2
354.641	12.06
355.007	12.13
355.374	12.12
355.741	12.13
356.107	12.13
356.474	12.08
356.84	12.09
357.207	12.13
357.573	12.22
357.94	12.17
358.306	12.14
358.673	12.07
359.039	12.08
359.405	12.08
359.771	12.09
360.138	12.15
360.504	12.17
360.87	12.14
361.236	12.12
361.602	12.16
361.968	12.25
362.335	12.29
362.701	12.3
363.067	12.3
363.432	12.31
363.798	12.35
364.164	12.39
364.53	12.38
364.896	12.33
365.262	12.3
365.628	12.33
365.993	12.29
366.359	12.3
366.725	12.36
367.09	12.34
367.456	12.3
367.821	12.28
368.187	12.32
368.553	12.41
368.918	12.41
369.283	12.39
369.649	12.35
370.014	12.35
370.38	12.27
370.745	12.34
371.11	12.42
371.475	12.48
371.841	12.5
372.206	12.58
372.571	12.6
372.936	12.51
373.301	12.43
373.666	12.53
374.031	12.57
374.396	12.53
374.761	12.59
375.126	12.7
375.491	12.75
375.856	12.75
376.221	12.63
376.586	12.66
376.95	12.72
377.315	12.75
377.68	12.74
378.044	12.76
378.409	12.69
378.774	12.64
379.138	12.56
379.503	12.49
379.867	12.52
380.232	12.5
380.596	12.59
380.961	12.63
381.325	12.67
381.689	12.67
382.054	12.69
382.418	12.72
382.782	12.68
383.146	12.66
383.51	12.7
383.875	12.72
384.239	12.63
384.603	12.61
384.967	12.63
385.331	12.65
385.695	12.66
386.059	12.68
386.423	12.68
386.786	12.71
387.15	12.74
387.514	12.69
387.878	12.76
388.242	12.74
388.605	12.77
388.969	12.7
389.333	12.71
389.696	12.73
390.06	12.64
390.423	12.63
390.787	12.65
391.15	12.66
391.514	12.71
391.877	12.78
392.241	12.79
392.604	12.71
392.967	12.74
393.331	12.77
393.694	12.86
394.057	12.84
394.42	12.82
394.783	12.79
395.146	12.8
395.51	12.85
395.873	12.87
396.236	12.87
396.599	12.91
396.962	12.95
397.324	12.95
397.687	13.04
398.05	13.05
398.413	13.02
398.776	12.98
399.138	12.95
399.501	12.98
399.864	12.99
400.227	13.06
400.589	13.09
400.952	12.99
401.314	12.86
401.677	12.94
402.039	12.98
402.402	12.99
402.764	13
403.126	12.92
403.489	12.93
403.851	12.9
404.213	12.88
404.576	12.86
404.938	12.84
405.3	12.73
405.662	12.68
406.024	12.65
406.386	12.68
406.748	12.74
407.11	12.72
407.472	12.73
407.834	12.77
408.196	12.72
408.558	12.7
408.92	12.75
409.282	12.65
409.643	12.67
410.005	12.66
410.367	12.63
410.728	12.66
411.09	12.62
411.452	12.67
411.813	12.68
412.175	12.71
412.536	12.73
412.898	12.82
413.259	12.88
413.62	12.89
413.982	12.91
414.343	12.92
414.704	12.9
415.066	12.93
415.427	12.86
415.788	12.87
416.149	12.95
416.51	12.96
416.871	12.93
417.232	12.92
417.593	12.89
417.954	12.91
418.315	12.89
418.676	12.9
419.037	12.92
419.398	12.91
419.759	12.89
420.119	12.88
420.48	12.88
420.841	12.83
421.201	12.83
421.562	12.83
421.923	12.8
422.283	12.82
422.644	12.82
423.004	12.79
423.365	12.81
423.725	12.82
424.086	12.81
424.446	12.87
424.806	12.85
425.166	12.87
425.527	12.9
425.887	12.93
426.247	12.94
426.607	12.92
426.967	12.93
427.327	12.96
427.687	12.95
428.047	12.96
428.407	13.01
428.767	13
429.127	13
429.487	13.03
429.847	13.07
430.207	13.09
430.566	13.12
430.926	13.1
431.286	13.09
431.645	13.14
432.005	13.1
432.365	13.11
432.724	13.13
433.084	13.12
433.443	13.09
433.803	13.12
434.162	13.11
434.521	13.11
434.881	13.07
435.24	13.09
435.599	13.06
435.958	13.06
436.318	13.05
436.677	13.04
437.036	13.02
437.395	12.96
437.754	12.93
438.113	12.9
438.472	12.91
438.831	12.88
439.19	12.84
439.549	12.87
439.908	12.89
440.266	12.89
440.625	12.89
440.984	12.91
441.343	12.92
441.701	12.95
442.06	12.98
442.418	12.97
442.777	12.97
443.136	12.98
443.494	12.99
443.852	12.98
444.211	12.98
444.569	13
444.928	13.02
445.286	13.02
445.644	13.05
446.002	13.06
446.361	13.09
446.719	13.12
447.077	13.17
447.435	13.17
447.793	13.19
448.151	13.16
448.509	13.13
448.867	13.1
449.225	13.04
449.583	13.01
449.94	13.06
450.298	13.05
450.656	13.04
451.014	13.03
451.371	13.05
451.729	13.07
452.087	13.08
452.444	13.07
452.802	13.06
453.159	13.08
453.517	13.06
453.874	13.06
454.232	13.04
454.589	13.02
454.946	13
455.304	13.01
455.661	13.04
456.018	13.06
456.375	13.07
456.732	13.11
457.09	13.1
457.447	13.06
457.804	13.05
458.161	13.04
458.518	13.03
458.875	13.02
459.231	12.99
459.588	12.94
459.945	12.92
460.302	12.91
460.659	12.9
461.015	12.91
461.372	12.89
461.729	12.9
462.085	12.88
462.442	12.89
462.798	12.85
463.155	12.84
463.511	12.84
463.868	12.84
464.224	12.82
464.58	12.82
464.937	12.83
465.293	12.82
465.649	12.85
466.005	12.89
466.362	12.93
466.718	12.94
467.074	12.98
467.43	13
467.786	13.04
468.142	13.03
468.498	13.04
468.854	13.04
469.21	13.06
469.565	13.07
469.921	13.07
470.277	13.13
470.633	13.12
470.988	13.14
471.344	13.11
471.7	13.14
472.055	13.16
472.411	13.14
472.766	13.15
473.122	13.16
473.477	13.13
473.832	13.12
474.188	13.12
474.543	13.12
474.898	13.09
475.254	13.1
475.609	13.11
475.964	13.08
476.319	13.08
476.674	13.04
477.029	13.01
477.384	12.99
477.739	12.99
478.094	13.01
478.449	12.98
478.804	12.97
479.159	12.94
479.513	12.92
479.868	12.9
480.223	12.87
480.578	12.83
480.932	12.8
481.287	12.79
481.641	12.78
481.996	12.77
482.35	12.77
482.705	12.76
483.059	12.75
483.414	12.76
483.768	12.77
484.122	12.79
484.477	12.79
484.831	12.77
485.185	12.77
485.539	12.76
485.893	12.76
486.247	12.76
486.601	12.76
486.955	12.76
487.309	12.76
487.663	12.75
488.017	12.76
488.371	12.79
488.725	12.8
489.078	12.8
489.432	12.81
489.786	12.8
490.14	12.81
490.493	12.82
490.847	12.81
491.2	12.81
491.554	12.79
491.907	12.78
492.261	12.82
492.614	12.82
492.967	12.83
493.321	12.82
493.674	12.81
494.027	12.83
494.38	12.85
494.734	12.88
495.087	12.91
495.44	12.94
495.793	12.94
496.146	12.93
496.499	12.94
496.852	12.94
497.205	12.96
497.558	12.96
497.91	12.96
498.263	12.97
498.616	12.98
498.969	13
499.321	13
499.674	12.99
500.027	13
500.379	13
500.732	13.03
501.084	13.05
501.436	13.06
501.789	13.07
502.141	13.03
502.494	13.02
502.846	13.05
503.198	13.06
503.55	13.1
503.902	13.1
504.255	13.11
504.607	13.11
504.959	13.1
505.311	13.1
505.663	13.11
506.015	13.1
506.367	13.08
506.718	13.09
507.07	13.11
507.422	13.1
507.774	13.09
508.125	13.07
508.477	13.05
508.829	13.05
509.18	13.03
509.532	13.04
509.883	13.05
510.235	13.03
510.586	13.05
510.938	13.05
511.289	13.05
511.64	13.06
511.992	13.07
512.343	13.1
512.694	13.12
513.045	13.11
513.396	13.1
513.747	13.1
514.098	13.11
514.449	13.11
514.8	13.11
515.151	13.1
515.502	13.09
515.853	13.11
516.204	13.1
516.555	13.13
516.905	13.15
517.256	13.14
517.607	13.14
517.957	13.12
518.308	13.09
518.658	13.09
519.009	13.09
519.359	13.09
519.71	13.12
520.06	13.1
520.41	13.1
520.761	13.12
521.111	13.13
521.461	13.15
521.811	13.15
522.162	13.16
522.512	13.17
522.862	13.2
523.212	13.2
523.562	13.22
523.912	13.21
524.262	13.18
524.611	13.2
524.961	13.19
525.311	13.21
525.661	13.23
526.01	13.23
526.36	13.23
526.71	13.22
527.059	13.21
527.409	13.21
527.758	13.22
528.108	13.23
528.457	13.22
528.807	13.22
529.156	13.24
529.505	13.23
529.855	13.26
530.204	13.28
530.553	13.3
530.902	13.31
531.251	13.32
531.6	13.35
531.949	13.36
532.298	13.39
532.647	13.39
532.996	13.4
533.345	13.43
533.694	13.46
534.043	13.49
534.391	13.52
534.74	13.56
535.089	13.58
535.437	13.59
535.786	13.61
536.135	13.62
536.483	13.63
536.832	13.68
537.18	13.66
537.528	13.67
537.877	13.69
538.225	13.71
538.573	13.74
538.921	13.78
539.27	13.79
539.618	13.82
539.966	13.84
540.314	13.87
540.662	13.89
541.01	13.92
541.358	13.93
541.706	13.94
542.054	13.96
542.402	13.98
542.749	14.01
543.097	14.03
543.445	14.07
543.792	14.1
544.14	14.14
544.488	14.2
544.835	14.24
545.183	14.25
545.53	14.28
545.878	14.3
546.225	14.32
546.572	14.36
546.92	14.39
547.267	14.45
547.614	14.5
547.961	14.55
548.308	14.59
548.655	14.66
549.002	14.68
549.349	14.72
549.696	14.76
550.043	14.77
550.39	14.82
550.737	14.82
551.084	14.87
551.431	14.91
551.777	14.96
552.124	15.02
552.471	15.12
552.817	15.16
553.164	15.23
553.51	15.28
553.857	15.31
554.203	15.35
554.55	15.41
554.896	15.46
555.242	15.49
555.589	15.52
555.935	15.54
556.281	15.6
556.627	15.69
556.973	15.71
557.319	15.81
557.665	15.92
558.011	16.02
558.357	16.08
558.703	16.12
559.049	16.14
559.395	16.19
559.741	16.26
560.086	16.36
560.432	16.42
560.778	16.52
561.123	16.65
561.469	16.76
561.815	16.86
562.16	16.96
562.506	17.09
562.851	17.18
563.196	17.35
563.542	17.5
563.887	17.59
564.232	17.75
564.577	17.86
564.922	17.96
565.268	18.09
565.613	18.21
565.958	18.36
566.303	18.52
566.648	18.66
566.993	18.77
567.337	18.92
567.682	19.06
568.027	19.21
568.372	19.33
568.717	19.46
569.061	19.59
569.406	19.74
569.75	19.89
570.095	20.07
570.439	20.19
570.784	20.37
571.128	20.49
571.473	20.64
571.817	20.82
572.161	20.96
572.505	21.14
572.85	21.31
573.194	21.48
573.538	21.65
573.882	21.81
574.226	22.02
574.57	22.17
574.914	22.34
575.258	22.54
575.602	22.76
575.946	23.01
576.289	23.22
576.633	23.49
576.977	23.72
577.32	23.96
577.664	24.2
578.008	24.4
578.351	24.73
578.695	24.99
579.038	25.27
579.382	25.6
579.725	25.84
580.068	26.15
580.411	26.43
580.755	26.75
581.098	27.05
581.441	27.33
581.784	27.69
582.127	28.05
582.47	28.33
582.813	28.67
583.156	28.99
583.499	29.36
583.842	29.62
584.185	29.95
584.527	30.3
584.87	30.69
585.213	31.11
585.556	31.48
585.898	31.86
586.241	32.3
586.583	32.69
586.926	33.14
587.268	33.52
587.61	33.96
587.953	34.38
588.295	34.85
588.637	35.33
588.98	35.7
589.322	36.08
589.664	36.53
590.006	36.98
590.348	37.39
590.69	37.83
591.032	38.28
591.374	38.74
591.716	39.21
592.058	39.64
592.399	40.14
592.741	40.65
593.083	41.21
593.424	41.72
593.766	42.22
594.108	42.78
594.449	43.28
594.791	43.72
595.132	44.16
595.474	44.56
595.815	44.98
596.156	45.43
596.497	45.92
596.839	46.35
597.18	46.77
597.521	47.23
597.862	47.74
598.203	48.25
598.544	48.76
598.885	49.28
599.226	49.75
599.567	50.27
599.908	50.76
600.249	51.27
600.589	51.78
600.93	52.39
601.271	52.91
601.611	53.49
601.952	54.08
602.292	54.67
602.633	55.27
602.973	55.74
603.314	56.24
603.654	56.66
603.995	57.1
604.335	57.58
604.675	57.97
605.015	58.33
605.355	58.77
605.695	59.28
606.036	59.77
606.376	60.3
606.715	60.74
607.055	61.27
607.395	61.73
607.735	62.22
608.075	62.73
608.415	63.23
608.754	63.72
609.094	64.15
609.434	64.53
609.773	64.92
610.113	65.3
610.452	65.66
610.792	66.08
611.131	66.45
611.471	66.73
611.81	67.13
612.149	67.52
612.488	67.86
612.828	68.2
613.167	68.55
613.506	68.89
613.845	69.31
614.184	69.6
614.523	69.83
614.862	70.15
615.201	70.42
615.539	70.72
615.878	71.04
616.217	71.36
616.556	71.68
616.894	71.93
617.233	72.2
617.571	72.51
617.91	72.76
618.248	73.04
618.587	73.38
618.925	73.71
619.264	74.01
619.602	74.32
619.94	74.49
620.278	74.73
620.617	74.93
620.955	75.13
621.293	75.43
621.631	75.79
621.969	75.96
622.307	76.19
622.645	76.48
622.983	76.72
623.32	76.93
623.658	77.16
623.996	77.35
624.334	77.58
624.671	77.78
625.009	77.92
625.346	78.11
625.684	78.33
626.021	78.51
626.359	78.62
626.696	78.76
627.033	78.99
627.371	79.14
627.708	79.28
628.045	79.4
628.382	79.43
628.719	79.57
629.056	79.79
629.394	79.91
629.73	80
630.067	80.09
630.404	80.31
630.741	80.4
631.078	80.59
631.415	80.78
631.751	80.91
632.088	81.09
632.425	81.27
632.761	81.29
633.098	81.33
633.434	81.53
633.771	81.66
634.107	81.73
634.443	81.84
634.78	81.96
635.116	82.15
635.452	82.37
635.788	82.57
636.124	82.64
636.46	82.74
636.797	82.79
637.133	82.91
637.468	82.98
637.804	83.15
638.14	83.23
638.476	83.25
638.812	83.29
639.147	83.33
639.483	83.35
639.819	83.43
640.154	83.55
640.49	83.58
640.825	83.59
641.161	83.58
641.496	83.68
641.832	83.75
642.167	83.78
642.502	83.9
642.837	83.93
643.172	84.09
643.508	84.14
643.843	84.21
644.178	84.24
644.513	84.31
644.848	84.3
645.183	84.43
645.517	84.54
645.852	84.64
646.187	84.74
646.522	84.77
646.856	84.96
647.191	85.05
647.526	85.15
647.86	85.19
648.195	85.37
648.529	85.34
648.863	85.32
649.198	85.3
649.532	85.34
649.866	85.37
650.201	85.33
650.535	85.4
650.869	85.5
651.203	85.57
651.537	85.53
651.871	85.59
652.205	85.59
652.539	85.54
652.873	85.57
653.206	85.62
653.54	85.65
653.874	85.6
654.208	85.6
654.541	85.58
654.875	85.71
655.208	85.72
655.542	85.74
655.875	85.9
656.209	86.03
656.542	86.06
656.875	86.16
657.208	86.23
657.542	86.33
657.875	86.36
658.208	86.37
658.541	86.42
658.874	86.51
659.207	86.43
659.54	86.47
659.873	86.49
660.206	86.42
660.538	86.48
660.871	86.42
661.204	86.33
661.536	86.35
661.869	86.24
662.202	86.26
662.534	86.3
662.867	86.25
663.199	86.21
663.531	86.05
663.864	85.82
664.196	85.77
664.528	85.75
664.86	85.81
665.193	85.84
665.525	85.99
665.857	85.84
666.189	85.98
666.521	86.03
666.853	86.03
667.184	86.05
667.516	85.99
667.848	85.96
668.18	86.09
668.511	85.9
668.843	86
669.175	86.03
669.506	86.07
669.838	86.06
670.169	86.01
670.5	86.11
670.832	86.11
671.163	86.11
671.494	86.04
671.826	85.88
672.157	85.84
672.488	85.64
672.819	85.65
673.15	85.61
673.481	85.45
673.812	85.49
674.143	85.56
674.473	85.64
674.804	85.7
675.135	85.67
675.466	85.84
675.796	85.86
676.127	85.76
676.457	85.84
676.788	85.92
677.118	85.93
677.449	85.88
677.779	85.97
678.109	85.86
678.44	85.8
678.77	85.92
679.1	85.98
679.43	85.93
679.76	86.02
680.09	85.99
680.42	86.02
680.75	85.93
681.08	85.78
681.41	85.59
681.74	85.49
682.07	85.5
682.399	85.5
682.729	85.46
683.059	85.57
683.388	85.49
683.718	85.45
684.047	85.43
684.376	85.39
684.706	85.35
685.035	85.43
685.364	85.58
685.694	85.38
686.023	85.26
686.352	85.4
686.681	85.39
687.01	85.29
687.339	85.4
687.668	85.54
687.997	85.66
688.326	85.76
688.655	85.87
688.983	85.78
689.312	85.7
689.641	85.67
689.969	85.6
690.298	85.63
690.626	85.53
690.955	85.6
691.283	85.69
691.612	85.64
691.94	85.64
692.268	85.6
692.596	85.72
692.925	85.66
693.253	85.53
693.581	85.41
693.909	85.56
694.237	85.51
694.565	85.51
694.893	85.57
695.22	85.65
695.548	85.57
695.876	85.58
696.204	85.71
696.531	85.78
696.859	85.76
697.186	85.63
697.514	85.69
697.841	85.6
698.169	85.56
698.496	85.59
698.823	85.56
699.151	85.55
699.478	85.55
699.805	85.7
700.132	85.79
700.459	85.79
700.786	85.73
701.113	85.69
701.44	85.54
701.767	85.48
702.094	85.5
702.421	85.52
702.747	85.54
703.074	85.35
703.401	85.23
703.727	85.25
704.054	85.26
704.38	85.16
704.707	85.26
705.033	85.15
705.359	85.34
705.686	85.39
706.012	85.35
706.338	85.43
706.664	85.29
706.99	85.18
707.317	85.11
707.643	84.94
707.968	84.84
708.294	85.03
708.62	85.09
708.946	85.01
709.272	84.96
709.598	85.18
709.923	85.33
710.249	85.2
710.574	85.16
710.9	85.2
711.225	85.24
711.551	85.01
711.876	84.81
712.201	84.55
712.527	84.51
712.852	84.48
713.177	84.23
713.502	84.14
713.827	84.34
714.152	84.5
714.477	84.52
714.802	84.64
715.127	84.49
715.452	84.45
715.777	84.49
716.101	84.47
716.426	84.07
716.751	83.9
717.075	84.17
717.4	84.18
717.724	84.23
718.049	84.27
718.373	84.34
718.698	84.63
719.022	84.84
719.346	84.73
719.67	84.78
719.994	84.76
720.318	84.73
720.643	84.28
720.967	84.12
721.29	84.11
721.614	83.82
721.938	83.8
722.262	83.9
722.586	83.57
722.909	83.61
723.233	83.65
723.557	83.88
723.88	83.59
724.204	83.3
724.527	82.88
724.851	82.56
725.174	82.66
725.497	82.65
725.82	82.41
726.144	82.53
726.467	82.31
726.79	82.45
727.113	82.43
727.436	82.43
727.759	82.28
728.082	82.2
728.405	82.14
728.728	81.91
729.05	81.65
729.373	81.96
729.696	82.05
730.018	82
730.341	81.69
730.663	81.75
730.986	81.65
731.308	81.79
731.631	81.78
731.953	81.6
732.275	81.62
732.597	81.7
732.919	81.57
733.242	81.45
733.564	81.5
733.886	81.39
734.208	81.39
734.529	81.54
734.851	81.66
735.173	81.92
735.495	82.14
735.817	82.13
736.138	81.95
736.46	81.72
736.781	81.54
737.103	81.3
737.424	81.2
737.746	81.29
738.067	81.04
738.388	81.36
738.71	81.02
739.031	80.37
739.352	80.11
739.673	80.14
739.994	80.19
740.315	80.1
740.636	80.23
740.957	80.32
741.278	80.28
741.599	79.85
741.919	79.99
742.24	79.86
742.561	79.58
742.881	79.57
743.202	79.42
743.522	79.56
743.843	79.71
744.163	79.59
744.484	79.38
744.804	79.44
745.124	78.85
745.444	79.06
745.765	79.35
746.085	79.43
746.405	79.29
746.725	79.19
747.045	79.01
747.364	78.87
747.684	78.75
748.004	78.56
748.324	79.15
748.644	78.45
748.963	78.23
749.283	78.69
749.602	78.21
749.922	77.95
750.241	77.74
750.561	77.77
750.88	77.62
751.199	77.35
751.518	77.09
751.838	77.5
752.157	77.53
752.476	77.9
752.795	78.17
753.114	77.66
753.433	77.67
753.752	77.35
754.07	77.44
754.389	77.08
754.708	77.25
755.027	76.63
755.345	77.03
755.664	77.32
755.982	77.09
756.301	77.16
756.619	77.89
756.938	78.11
757.256	78.24
757.574	78.41
757.892	78.57
758.21	79.02
758.529	78.85
758.847	78.7
759.165	78.21
759.483	78.03
759.8	78.7
760.118	78.96
760.436	79.02
760.754	78.88
761.072	79.14
761.389	78.99
761.707	79.15
762.024	78.56
762.342	78.53
762.659	78.18
762.977	78.29
763.294	77.94
763.611	77.66
763.928	77.32
764.246	77.08
764.563	76.83
764.88	76.57
765.197	76.27
765.514	76.47
765.831	76.39
766.148	76.1
766.464	75.63
766.781	74.93
767.098	74.96
767.415	74.7
767.731	74.64
768.048	74.43
768.364	74.5
768.681	74.88
768.997	75.05
769.314	74.86
769.63	74.39
769.946	74.04
770.262	74.22
770.578	74
770.894	73.86
771.211	74.04
771.527	73.83
771.842	73.76
772.158	73.61
772.474	74.3
772.79	74.18
773.106	74.11
773.421	74.44
773.737	73.92
774.053	73.84
774.368	73.98
774.684	73.49
774.999	72.96
775.314	72.95
775.63	71.62
775.945	70.98
776.26	71.14
776.575	71.45
776.89	70.99
777.205	71.81
777.52	71.77
777.835	72.05
778.15	72.13
778.465	72.25
778.78	72.11
779.095	71.39
779.409	71.64
779.724	72.36
780.038	72.21
780.353	72.65
780.667	73.26
780.982	72.98
781.296	74.04
781.611	74.53
781.925	73.87
782.239	74.74
782.553	76.51
782.867	76.37
783.181	75.5
783.495	75.29
783.809	74.11
784.123	73.61
784.437	73.87
784.751	73.05
785.065	73.65
785.378	74.11
785.692	74.43
786.005	74.61
786.319	72.7
786.632	72.96
786.946	73.29
787.259	72.52
787.573	72.34
787.886	71.95
788.199	71.14
788.512	71.49
788.825	70.91
789.138	69.99
789.451	70.2
789.764	70.58
790.077	71.07
790.39	71.45
790.703	72.16
791.015	71.51
791.328	72.31
791.641	71.71
791.953	71.67
792.266	72.05
792.578	72.46
792.891	73.82
793.203	73.69
793.515	74.5
793.828	74.88
794.14	74.99
794.452	74.82
794.764	75.95
795.076	76
795.388	76.4
795.7	76.7
796.012	77.56
796.324	77.58
796.636	76.55
796.947	77.1
797.259	76.1
797.571	76.68
797.882	77.07
798.194	77.1
798.505	75.56
798.816	75.35
799.128	74.52
799.439	74.38
799.75	75.28
800.062	73.92
800.373	73.94
800.684	72.72
800.995	72.67
801.306	72.61
801.617	72.52
801.928	72.43
802.238	71.3
802.549	69.95
802.86	69.79
803.17	72.71
803.481	73.3
803.792	73.68
804.102	73.63
804.413	74.24
804.723	73.01
805.033	73.64
805.343	73.2
805.654	73.65
805.964	73.91
806.274	72.54
806.584	73.3
806.894	73.77
807.204	74.56
807.514	74
807.824	72.52
808.134	72.3
808.443	70.77
808.753	71.8
809.063	72.23
809.372	73.12
809.682	70.58
809.991	69.96
810.301	70.2
810.61	69.1
810.919	68.33
811.228	69.36
811.538	70.68
811.847	71.75
812.156	71.92
812.465	71.24
812.774	71.54
813.083	71.02
813.392	70
813.7	70.72
814.009	71.61
814.318	73.7
814.627	73.74
814.935	75.33
815.244	75.52
815.552	76.13
815.861	75.97
816.169	76.99
816.477	74.86
816.786	74.21
817.094	75.11
817.402	75.19
817.71	75.88
818.018	74.16
818.326	72.62
818.634	72.26
818.942	71.9
819.25	72
819.558	71.65
819.865	70.86
820.173	70.98
820.481	70.91
820.788	70.66
821.096	70.86
821.403	70.84
821.711	70.88
822.018	70.5
822.325	70.29
822.632	70.3
822.94	70.33
823.247	70.77
823.554	70.72
823.861	70.71
824.168	70.6
824.475	70.93
824.781	71.14
825.088	71.04
825.395	71.05
825.702	70.9
826.008	70.78
826.315	71.61
826.621	71.61
826.928	71.95
827.234	71.5
827.541	71.42
827.847	70.78
828.153	70.09
828.459	70.51
828.766	70.64
829.072	70.31
829.378	71.36
829.684	70.8
829.99	70.33
830.295	69.43
830.601	69.01
830.907	68.72
831.213	68.9
831.518	69.85
831.824	70.73
832.129	71.49
832.435	72.44
832.74	72.36
833.046	71.11
833.351	70
833.656	71.72
833.961	71.61
834.267	73.62
834.572	74.35
834.877	74.22
835.182	74.28
835.487	74.7
835.791	74.31
836.096	74.79
836.401	74.82
836.706	75.16
837.01	75.29
837.315	74.29
837.619	74.8
837.924	73.35
838.228	72.39
838.533	71.64
838.837	72
839.141	70.96
839.445	72.69
839.75	73.16
840.054	71.5
840.358	73.28
840.662	71.03
840.966	72.2
841.269	72.51
841.573	72.66
841.877	71.6
842.181	75.47
842.484	77.44
842.788	79.35
843.091	81.19
843.395	83.62
843.698	86.26
844.002	86.12
844.305	87.25
844.608	91.52
844.911	91.56
845.215	89.05
845.518	87.74
845.821	87.07
846.124	86.58
846.427	84.76
846.729	84.23
847.032	80.47
847.335	78.97
847.638	79.38
847.94	81.15
848.243	80.22
848.545	74.11
848.848	71.4
849.15	74.45
849.453	75.88
849.755	74.04
850.057	73.14
850.359	69.94
850.661	67.24
850.963	62.23
851.265	61.11
851.567	62.94
851.869	63.73
852.171	60.72
852.473	60.94
852.775	65.38
853.076	60.79
853.378	67.88
853.68	67.23
853.981	64.54
854.282	60.34
854.584	63.59
854.885	63.87
855.186	64.83
855.488	59.52
855.789	55.02
856.09	54.92
856.391	56.89
856.692	57.4
856.993	61.09
857.294	65.02
857.595	67.21
857.895	66.96
858.196	65.99
858.497	69.6
858.797	67.42
859.098	66.28
859.398	74.98
859.699	77.06
859.999	75.28
860.3	80.16
860.6	82.37
860.9	86.67
861.2	84.11
861.5	83.67
861.8	83.51
862.1	87.11
862.4	88.82
862.7	88.82
863	87.52
863.3	89.47
863.599	87.36
863.899	86.39
864.198	83.74
864.498	89.81
864.797	87.72
865.097	91.39
865.396	92.34
865.695	84.87
865.995	84.29
866.294	88.15
866.593	90.14
866.892	92.13
867.191	87.24
867.49	93.3
867.789	90.58
868.088	95.95
868.386	93.36
868.685	93.68
868.984	93.7
869.282	94.78
869.581	91.2
869.879	92.41
870.178	90.53
870.476	88.49
870.775	83.36
871.073	81.9
871.371	81.13
871.669	75.75
871.967	80.14
872.265	75.19
872.563	71.17
872.861	62.83
873.159	65.33
873.457	66.47
873.755	65.27
874.052	62.89
874.35	54.69
874.647	53.78
874.945	57.54
875.242	60.71
875.54	66.09
875.837	70.66
876.134	76.98
876.432	78.27
876.729	81.38
877.026	81.54
877.323	72.22
877.62	73.99
877.917	73.81
878.214	71.47
878.511	68.38
878.807	67.98
879.104	72.97
879.401	70.05
879.697	69.12
879.994	69.69
880.29	70.3
880.587	70.69
880.883	71.45
881.179	68.37
881.475	67.69
881.772	66.87
882.068	65.06
882.364	63.97
882.66	64.88
882.956	65.62
883.252	65.63
883.548	67.94
883.843	66.41
884.139	67.05
884.435	66.25
884.73	67.99
885.026	69.06
885.321	67.64
885.617	67.16
885.912	67.63
886.207	66.16
886.503	65.43
886.798	66.3
887.093	67.08
887.388	71.73
887.683	71.84
887.978	72.31
888.273	77.74
888.568	78.55
888.862	76.39
889.157	73.61
889.452	75.45
889.746	75.88
890.041	81.18
890.335	80.12
890.63	86.35
890.924	85.22
891.219	84.73
891.513	84.24
