Data from coltest_Reflection_019.txt Node
Date: Mon Feb 02 14:20:10 EST 2015
User: jamesohanlon
Spectrometer: JAZA0776
Autoset integration time: false
Trigger mode: 0
Integration Time (sec): 1.000000E-1
Scans to average: 10
Electric dark correction enabled: true
Nonlinearity correction enabled: false
Boxcar width: 10
Stray light correction enabled: false
XAxis mode: Wavelengths
Stop averaging: false
Number of Pixels in Spectrum: 2048
>>>>>Begin Spectral Data<<<<<
190.472	45.16
190.851	44.25
191.23	48.03
191.609	64.98
191.988	54.52
192.366	34.31
192.745	13.67
193.124	73.68
193.503	-365.17
193.882	504.29
194.26	495.29
194.639	-393.17
195.018	-166.9
195.397	-147.41
195.775	12.03
196.154	-24.9
196.532	-286.04
196.911	-151.52
197.29	-157.13
197.668	-198.16
198.047	-77.49
198.425	-56.08
198.803	-113.17
199.182	-144.53
199.56	-79.82
199.939	-50.6
200.317	-44.05
200.695	-8.3
201.074	0.68
201.452	4.72
201.83	13.32
202.208	15.39
202.587	16.43
202.965	5.56
203.343	4.82
203.721	1.07
204.099	6.01
204.477	9.93
204.855	8.4
205.233	12.38
205.611	17.85
205.989	19.56
206.367	22.48
206.745	28.04
207.123	30.81
207.501	28.67
207.879	25.94
208.257	25.62
208.635	16.67
209.012	11.03
209.39	14.21
209.768	18.99
210.146	19.02
210.523	12.02
210.901	9.93
211.278	14.18
211.656	14.69
212.034	12.74
212.411	5.28
212.789	1.7
213.166	-1.04
213.544	-12.83
213.921	-16.11
214.299	-20.4
214.676	-23.03
215.053	-36.15
215.431	-51.97
215.808	-49.38
216.185	-57.36
216.563	-62.25
216.94	-66.41
217.317	-85.58
217.694	-87.91
218.072	-118.73
218.449	-96.43
218.826	-104.52
219.203	-143.96
219.58	-136.52
219.957	-181.76
220.334	-173.23
220.711	-183.52
221.088	-244.15
221.465	-276.12
221.842	-367.05
222.219	-337.76
222.596	-689.12
222.973	-697.63
223.349	-721.95
223.726	-448.35
224.103	-384.85
224.48	-419.45
224.856	-410.44
225.233	-488.71
225.61	-649.7
225.986	-671.58
226.363	-786.29
226.74	-721.95
227.116	-805.91
227.493	-910.82
227.869	-782.25
228.246	-760.53
228.622	-685.05
228.999	-606.69
229.375	-624.59
229.751	-604.65
230.128	-665.32
230.504	-576.5
230.88	-539.47
231.257	-520.01
231.633	-529.88
232.009	-500.44
232.385	-458.85
232.761	-474.92
233.138	-440.66
233.514	-408.08
233.89	-373.86
234.266	-350.65
234.642	-341.87
235.018	-316.67
235.394	-305.66
235.77	-296.81
236.146	-276.29
236.522	-275.23
236.898	-280.07
237.274	-267.25
237.649	-257.46
238.025	-237.32
238.401	-233.22
238.777	-230.62
239.152	-226.77
239.528	-222.58
239.904	-217.64
240.279	-216.2
240.655	-207.39
241.031	-204.63
241.406	-197.89
241.782	-195.19
242.157	-190.22
242.533	-184.16
242.908	-176.86
243.284	-170.92
243.659	-166.88
244.034	-163.61
244.41	-160.58
244.785	-157.58
245.16	-154.83
245.536	-151.15
245.911	-149.61
246.286	-147.1
246.661	-143.78
247.037	-140.43
247.412	-135.93
247.787	-133.07
248.162	-129.85
248.537	-127.95
248.912	-124.7
249.287	-124.41
249.662	-121.72
250.037	-120.53
250.412	-119.52
250.787	-118.26
251.162	-116.02
251.537	-113.35
251.911	-110.95
252.286	-108.35
252.661	-105.85
253.036	-103.15
253.41	-101.45
253.785	-99.14
254.16	-96.72
254.534	-94.76
254.909	-93.74
255.284	-93.55
255.658	-92.7
256.033	-92.13
256.407	-90.57
256.782	-91.19
257.156	-89.69
257.53	-89.83
257.905	-89.68
258.279	-88.75
258.654	-88.66
259.028	-88.52
259.402	-87.96
259.776	-87.44
260.151	-87.11
260.525	-86.4
260.899	-86.29
261.273	-86.28
261.647	-86.49
262.021	-86.11
262.395	-85.76
262.769	-85.52
263.143	-85.24
263.517	-85.04
263.891	-84.64
264.265	-84.37
264.639	-82.83
265.013	-82.65
265.387	-81.82
265.761	-81.3
266.135	-80.63
266.508	-80.31
266.882	-80.07
267.256	-79.59
267.629	-79.59
268.003	-79.25
268.377	-79.55
268.75	-79.56
269.124	-79.77
269.497	-79.38
269.871	-79.52
270.244	-79.52
270.618	-79.26
270.991	-79.22
271.365	-79.1
271.738	-79.1
272.111	-79.18
272.485	-79.44
272.858	-79.22
273.231	-78.97
273.604	-78.89
273.978	-79.24
274.351	-79.19
274.724	-78.97
275.097	-78.94
275.47	-78.89
275.843	-79.05
276.216	-78.79
276.589	-78.2
276.962	-77.62
277.335	-77.27
277.708	-76.99
278.081	-76.21
278.454	-75.97
278.827	-75.62
279.2	-75.34
279.572	-74.98
279.945	-74.69
280.318	-74.65
280.691	-74.32
281.063	-74.23
281.436	-73.45
281.808	-73.21
282.181	-72.63
282.554	-72.21
282.926	-72.08
283.299	-71.58
283.671	-70.93
284.044	-70.36
284.416	-70.46
284.788	-70.17
285.161	-69.89
285.533	-69.31
285.905	-69.4
286.278	-68.78
286.65	-67.95
287.022	-67.26
287.394	-66.42
287.766	-66.04
288.139	-65.6
288.511	-64.78
288.883	-64.2
289.255	-63.77
289.627	-62.83
289.999	-62.24
290.371	-61.61
290.743	-60.83
291.115	-60.36
291.486	-59.95
291.858	-59.36
292.23	-58.61
292.602	-58.18
292.974	-57.76
293.345	-57.24
293.717	-56.83
294.089	-56.43
294.46	-56.25
294.832	-55.8
295.204	-55.74
295.575	-55.28
295.947	-54.73
296.318	-54.71
296.69	-54.31
297.061	-54.1
297.433	-54.1
297.804	-53.99
298.175	-53.89
298.547	-53.7
298.918	-53.4
299.289	-53.03
299.66	-53.03
300.032	-52.77
300.403	-52.38
300.774	-52.19
301.145	-52.36
301.516	-52.15
301.887	-51.78
302.258	-51.32
302.629	-51.13
303	-50.67
303.371	-50.29
303.742	-50.12
304.113	-49.61
304.484	-49.45
304.855	-49.28
305.226	-48.88
305.596	-48.43
305.967	-48.05
306.338	-47.8
306.708	-47.39
307.079	-47.41
307.45	-47.09
307.82	-46.92
308.191	-46.68
308.561	-46.22
308.932	-45.89
309.302	-45.46
309.673	-45.35
310.043	-45.24
310.414	-44.99
310.784	-44.73
311.154	-44.63
311.525	-44.42
311.895	-44.25
312.265	-43.9
312.635	-43.62
313.006	-43.28
313.376	-42.98
313.746	-42.63
314.116	-42.27
314.486	-42.14
314.856	-41.58
315.226	-41.29
315.596	-41.03
315.966	-40.69
316.336	-40.41
316.706	-39.94
317.076	-39.72
317.445	-39.71
317.815	-39.58
318.185	-39.46
318.555	-39.26
318.924	-39.11
319.294	-38.96
319.664	-38.86
320.033	-38.85
320.403	-38.45
320.772	-38.4
321.142	-38.36
321.511	-38.15
321.881	-38.21
322.25	-37.78
322.62	-37.59
322.989	-37.29
323.358	-37.19
323.728	-37.21
324.097	-37.19
324.466	-36.95
324.836	-36.82
325.205	-36.39
325.574	-36.08
325.943	-35.96
326.312	-35.91
326.681	-35.6
327.05	-35.56
327.419	-35.4
327.788	-35.31
328.157	-35.37
328.526	-35.07
328.895	-34.93
329.264	-34.99
329.633	-34.63
330.001	-34.69
330.37	-34.6
330.739	-34.55
331.108	-34.36
331.476	-34.09
331.845	-34
332.214	-34.05
332.582	-34.1
332.951	-34.13
333.319	-34.15
333.688	-34.09
334.056	-34.01
334.425	-33.88
334.793	-33.46
335.161	-33.4
335.53	-33.32
335.898	-33.06
336.266	-33.13
336.635	-33.09
337.003	-32.93
337.371	-32.87
337.739	-32.69
338.107	-32.64
338.475	-32.58
338.843	-32.54
339.212	-32.65
339.58	-32.55
339.947	-32.47
340.315	-32.18
340.683	-32.3
341.051	-32.15
341.419	-32.13
341.787	-32.18
342.155	-32.3
342.522	-32.28
342.89	-32.09
343.258	-31.9
343.625	-31.73
343.993	-31.51
344.361	-31.34
344.728	-31.35
345.096	-31.31
345.463	-31.37
345.831	-31.33
346.198	-31.23
346.566	-31.15
346.933	-30.95
347.3	-30.83
347.668	-30.73
348.035	-30.81
348.402	-30.5
348.769	-30.41
349.137	-30.17
349.504	-29.85
349.871	-29.7
350.238	-29.73
350.605	-29.65
350.972	-29.53
351.339	-29.7
351.706	-29.8
352.073	-29.72
352.44	-29.52
352.807	-29.39
353.174	-29.26
353.54	-29.15
353.907	-29.08
354.274	-28.86
354.641	-28.71
355.007	-28.67
355.374	-28.57
355.741	-28.55
356.107	-28.48
356.474	-28.46
356.84	-28.47
357.207	-28.53
357.573	-28.45
357.94	-28.36
358.306	-28.35
358.673	-28.43
359.039	-28.32
359.405	-28.22
359.771	-28.21
360.138	-28.19
360.504	-28.17
360.87	-28.12
361.236	-28.02
361.602	-28.01
361.968	-28.05
362.335	-28.1
362.701	-28.08
363.067	-27.99
363.432	-27.89
363.798	-27.88
364.164	-27.83
364.53	-27.71
364.896	-27.61
365.262	-27.44
365.628	-27.39
365.993	-27.28
366.359	-27.2
366.725	-27.07
367.09	-27
367.456	-26.91
367.821	-26.82
368.187	-26.89
368.553	-26.99
368.918	-27.04
369.283	-26.93
369.649	-26.92
370.014	-26.91
370.38	-26.95
370.745	-27.02
371.11	-26.91
371.475	-26.83
371.841	-26.91
372.206	-26.92
372.571	-26.72
372.936	-26.79
373.301	-26.75
373.666	-26.74
374.031	-26.53
374.396	-26.58
374.761	-26.53
375.126	-26.62
375.491	-26.67
375.856	-26.46
376.221	-26.28
376.586	-26.26
376.95	-26.25
377.315	-26.17
377.68	-26.04
378.044	-25.83
378.409	-25.69
378.774	-25.64
379.138	-25.59
379.503	-25.49
379.867	-25.47
380.232	-25.55
380.596	-25.59
380.961	-25.49
381.325	-25.38
381.689	-25.44
382.054	-25.4
382.418	-25.31
382.782	-25.22
383.146	-24.98
383.51	-24.95
383.875	-24.96
384.239	-24.86
384.603	-24.88
384.967	-24.88
385.331	-24.88
385.695	-25.04
386.059	-25.06
386.423	-25.08
386.786	-25.08
387.15	-24.95
387.514	-24.89
387.878	-24.81
388.242	-24.72
388.605	-24.68
388.969	-24.61
389.333	-24.49
389.696	-24.43
390.06	-24.49
390.423	-24.46
390.787	-24.51
391.15	-24.52
391.514	-24.42
391.877	-24.33
392.241	-24.26
392.604	-24.19
392.967	-24.12
393.331	-23.93
393.694	-23.95
394.057	-23.86
394.42	-23.78
394.783	-23.75
395.146	-23.7
395.51	-23.69
395.873	-23.69
396.236	-23.62
396.599	-23.7
396.962	-23.74
397.324	-23.66
397.687	-23.54
398.05	-23.5
398.413	-23.4
398.776	-23.32
399.138	-23.34
399.501	-23.29
399.864	-23.19
400.227	-23.12
400.589	-23.21
400.952	-23.36
401.314	-23.3
401.677	-23.23
402.039	-23.25
402.402	-23.23
402.764	-23.19
403.126	-23.09
403.489	-23.08
403.851	-23.06
404.213	-23.05
404.576	-22.98
404.938	-23
405.3	-22.96
405.662	-22.89
406.024	-22.91
406.386	-22.96
406.748	-22.91
407.11	-22.93
407.472	-22.99
407.834	-22.96
408.196	-22.9
408.558	-22.74
408.92	-22.7
409.282	-22.72
409.643	-22.72
410.005	-22.69
410.367	-22.68
410.728	-22.71
411.09	-22.67
411.452	-22.67
411.813	-22.57
412.175	-22.6
412.536	-22.56
412.898	-22.59
413.259	-22.57
413.62	-22.57
413.982	-22.55
414.343	-22.52
414.704	-22.5
415.066	-22.44
415.427	-22.43
415.788	-22.29
416.149	-22.22
416.51	-22.15
416.871	-22.12
417.232	-22.06
417.593	-22.03
417.954	-22
418.315	-22
418.676	-21.96
419.037	-21.93
419.398	-21.91
419.759	-21.87
420.119	-21.85
420.48	-21.83
420.841	-21.82
421.201	-21.8
421.562	-21.75
421.923	-21.71
422.283	-21.74
422.644	-21.75
423.004	-21.72
423.365	-21.76
423.725	-21.76
424.086	-21.76
424.446	-21.77
424.806	-21.73
425.166	-21.73
425.527	-21.7
425.887	-21.7
426.247	-21.66
426.607	-21.63
426.967	-21.6
427.327	-21.62
427.687	-21.57
428.047	-21.57
428.407	-21.53
428.767	-21.52
429.127	-21.55
429.487	-21.59
429.847	-21.5
430.207	-21.41
430.566	-21.43
430.926	-21.42
431.286	-21.46
431.645	-21.49
432.005	-21.45
432.365	-21.46
432.724	-21.46
433.084	-21.44
433.443	-21.34
433.803	-21.41
434.162	-21.37
434.521	-21.42
434.881	-21.4
435.24	-21.42
435.599	-21.4
435.958	-21.4
436.318	-21.33
436.677	-21.29
437.036	-21.27
437.395	-21.26
437.754	-21.27
438.113	-21.27
438.472	-21.23
438.831	-21.17
439.19	-21.07
439.549	-21.04
439.908	-21.02
440.266	-20.99
440.625	-20.99
440.984	-20.98
441.343	-20.88
441.701	-20.84
442.06	-20.76
442.418	-20.72
442.777	-20.68
443.136	-20.63
443.494	-20.61
443.852	-20.6
444.211	-20.58
444.569	-20.52
444.928	-20.5
445.286	-20.56
445.644	-20.52
446.002	-20.45
446.361	-20.45
446.719	-20.42
447.077	-20.42
447.435	-20.43
447.793	-20.37
448.151	-20.34
448.509	-20.27
448.867	-20.29
449.225	-20.3
449.583	-20.3
449.94	-20.29
450.298	-20.3
450.656	-20.31
451.014	-20.31
451.371	-20.35
451.729	-20.31
452.087	-20.26
452.444	-20.25
452.802	-20.12
453.159	-20.11
453.517	-20.12
453.874	-20.11
454.232	-20.18
454.589	-20.19
454.946	-20.19
455.304	-20.18
455.661	-20.1
456.018	-20.18
456.375	-20.11
456.732	-20.14
457.09	-20.15
457.447	-20.06
457.804	-20.01
458.161	-19.96
458.518	-19.86
458.875	-19.78
459.231	-19.77
459.588	-19.76
459.945	-19.76
460.302	-19.76
460.659	-19.72
461.015	-19.74
461.372	-19.73
461.729	-19.73
462.085	-19.67
462.442	-19.59
462.798	-19.61
463.155	-19.63
463.511	-19.58
463.868	-19.57
464.224	-19.59
464.58	-19.55
464.937	-19.58
465.293	-19.66
465.649	-19.69
466.005	-19.74
466.362	-19.73
466.718	-19.7
467.074	-19.75
467.43	-19.69
467.786	-19.64
468.142	-19.59
468.498	-19.55
468.854	-19.5
469.21	-19.45
469.565	-19.49
469.921	-19.49
470.277	-19.46
470.633	-19.46
470.988	-19.42
471.344	-19.45
471.7	-19.39
472.055	-19.35
472.411	-19.37
472.766	-19.3
473.122	-19.26
473.477	-19.29
473.832	-19.25
474.188	-19.27
474.543	-19.3
474.898	-19.33
475.254	-19.39
475.609	-19.4
475.964	-19.34
476.319	-19.35
476.674	-19.33
477.029	-19.3
477.384	-19.3
477.739	-19.33
478.094	-19.28
478.449	-19.26
478.804	-19.24
479.159	-19.2
479.513	-19.18
479.868	-19.16
480.223	-19.19
480.578	-19.2
480.932	-19.15
481.287	-19.07
481.641	-19.06
481.996	-19
482.35	-18.96
482.705	-18.92
483.059	-18.91
483.414	-18.93
483.768	-18.91
484.122	-18.92
484.477	-18.91
484.831	-18.89
485.185	-18.87
485.539	-18.87
485.893	-18.87
486.247	-18.86
486.601	-18.88
486.955	-18.88
487.309	-18.85
487.663	-18.78
488.017	-18.78
488.371	-18.79
488.725	-18.84
489.078	-18.8
489.432	-18.78
489.786	-18.78
490.14	-18.79
490.493	-18.79
490.847	-18.8
491.2	-18.81
491.554	-18.78
491.907	-18.76
492.261	-18.74
492.614	-18.75
492.967	-18.77
493.321	-18.77
493.674	-18.75
494.027	-18.71
494.38	-18.71
494.734	-18.7
495.087	-18.7
495.44	-18.62
495.793	-18.57
496.146	-18.56
496.499	-18.57
496.852	-18.63
497.205	-18.61
497.558	-18.57
497.91	-18.55
498.263	-18.5
498.616	-18.49
498.969	-18.45
499.321	-18.47
499.674	-18.46
500.027	-18.43
500.379	-18.42
500.732	-18.39
501.084	-18.36
501.436	-18.37
501.789	-18.39
502.141	-18.36
502.494	-18.34
502.846	-18.33
503.198	-18.32
503.55	-18.29
503.902	-18.3
504.255	-18.28
504.607	-18.31
504.959	-18.3
505.311	-18.28
505.663	-18.3
506.015	-18.26
506.367	-18.28
506.718	-18.27
507.07	-18.24
507.422	-18.2
507.774	-18.13
508.125	-18.15
508.477	-18.17
508.829	-18.12
509.18	-18.03
509.532	-18.03
509.883	-18.04
510.235	-18.01
510.586	-18
510.938	-18.01
511.289	-17.96
511.64	-17.94
511.992	-17.92
512.343	-17.94
512.694	-17.98
513.045	-17.97
513.396	-17.93
513.747	-17.92
514.098	-17.95
514.449	-17.93
514.8	-18
515.151	-18.04
515.502	-18.04
515.853	-17.98
516.204	-18.02
516.555	-18.02
516.905	-18.01
517.256	-17.97
517.607	-17.97
517.957	-17.96
518.308	-17.95
518.658	-17.98
519.009	-17.96
519.359	-17.93
519.71	-17.88
520.06	-17.86
520.41	-17.86
520.761	-17.88
521.111	-17.88
521.461	-17.88
521.811	-17.89
522.162	-17.82
522.512	-17.81
522.862	-17.77
523.212	-17.78
523.562	-17.74
523.912	-17.75
524.262	-17.79
524.611	-17.83
524.961	-17.83
525.311	-17.84
525.661	-17.86
526.01	-17.83
526.36	-17.81
526.71	-17.8
527.059	-17.77
527.409	-17.75
527.758	-17.72
528.108	-17.7
528.457	-17.68
528.807	-17.69
529.156	-17.69
529.505	-17.69
529.855	-17.71
530.204	-17.72
530.553	-17.71
530.902	-17.7
531.251	-17.69
531.6	-17.64
531.949	-17.62
532.298	-17.57
532.647	-17.53
532.996	-17.5
533.345	-17.51
533.694	-17.55
534.043	-17.56
534.391	-17.57
534.74	-17.56
535.089	-17.57
535.437	-17.6
535.786	-17.61
536.135	-17.53
536.483	-17.46
536.832	-17.44
537.18	-17.38
537.528	-17.33
537.877	-17.3
538.225	-17.3
538.573	-17.26
538.921	-17.23
539.27	-17.19
539.618	-17.21
539.966	-17.19
540.314	-17.17
540.662	-17.11
541.01	-17.07
541.358	-17.04
541.706	-17
542.054	-16.95
542.402	-16.92
542.749	-16.85
543.097	-16.81
543.445	-16.78
543.792	-16.78
544.14	-16.73
544.488	-16.69
544.835	-16.63
545.183	-16.6
545.53	-16.52
545.878	-16.46
546.225	-16.45
546.572	-16.41
546.92	-16.35
547.267	-16.3
547.614	-16.24
547.961	-16.21
548.308	-16.13
548.655	-16.07
549.002	-16.06
549.349	-16.05
549.696	-15.98
550.043	-15.97
550.39	-15.93
550.737	-15.9
551.084	-15.88
551.431	-15.8
551.777	-15.74
552.124	-15.68
552.471	-15.62
552.817	-15.61
553.164	-15.59
553.51	-15.53
553.857	-15.39
554.203	-15.33
554.55	-15.25
554.896	-15.18
555.242	-15.08
555.589	-15.05
555.935	-14.95
556.281	-14.88
556.627	-14.79
556.973	-14.76
557.319	-14.65
557.665	-14.52
558.011	-14.4
558.357	-14.23
558.703	-14.16
559.049	-14.06
559.395	-13.98
559.741	-13.9
560.086	-13.74
560.432	-13.58
560.778	-13.46
561.123	-13.41
561.469	-13.26
561.815	-13.13
562.16	-12.9
562.506	-12.74
562.851	-12.53
563.196	-12.42
563.542	-12.3
563.887	-12.17
564.232	-12
564.577	-11.86
564.922	-11.71
565.268	-11.6
565.613	-11.48
565.958	-11.35
566.303	-11.21
566.648	-11.08
566.993	-10.88
567.337	-10.76
567.682	-10.6
568.027	-10.41
568.372	-10.19
568.717	-10.07
569.061	-9.83
569.406	-9.65
569.75	-9.52
570.095	-9.38
570.439	-9.21
570.784	-8.99
571.128	-8.77
571.473	-8.58
571.817	-8.31
572.161	-8.11
572.505	-7.86
572.85	-7.64
573.194	-7.38
573.538	-7.14
573.882	-6.85
574.226	-6.62
574.57	-6.38
574.914	-6.13
575.258	-5.87
575.602	-5.66
575.946	-5.35
576.289	-5.08
576.633	-4.82
576.977	-4.45
577.32	-4.09
577.664	-3.72
578.008	-3.39
578.351	-3.05
578.695	-2.68
579.038	-2.34
579.382	-1.97
579.725	-1.55
580.068	-1.12
580.411	-0.81
580.755	-0.4
581.098	-0.04
581.441	0.36
581.784	0.79
582.127	1.13
582.47	1.54
582.813	1.95
583.156	2.34
583.499	2.72
583.842	3.1
584.185	3.48
584.527	3.86
584.87	4.24
585.213	4.73
585.556	5.21
585.898	5.66
586.241	6.07
586.583	6.54
586.926	6.97
587.268	7.42
587.61	7.95
587.953	8.48
588.295	8.99
588.637	9.54
588.98	10.08
589.322	10.64
589.664	11.22
590.006	11.84
590.348	12.44
590.69	13
591.032	13.61
591.374	14.16
591.716	14.78
592.058	15.44
592.399	16.05
592.741	16.69
593.083	17.41
593.424	18.16
593.766	18.87
594.108	19.53
594.449	20.16
594.791	20.78
595.132	21.32
595.474	21.91
595.815	22.43
596.156	22.98
596.497	23.55
596.839	24.1
597.18	24.66
597.521	25.28
597.862	25.89
598.203	26.47
598.544	27.11
598.885	27.75
599.226	28.43
599.567	29.14
599.908	29.92
600.249	30.6
600.589	31.41
600.93	32.16
601.271	33
601.611	33.82
601.952	34.56
602.292	35.34
602.633	36.02
602.973	36.67
603.314	37.31
603.654	37.92
603.995	38.54
604.335	39.05
604.675	39.59
605.015	40.18
605.355	40.81
605.695	41.41
606.036	41.99
606.376	42.57
606.715	43.12
607.055	43.63
607.395	44.27
607.735	44.85
608.075	45.42
608.415	45.98
608.754	46.5
609.094	47.12
609.434	47.64
609.773	48.15
610.113	48.69
610.452	49.14
610.792	49.64
611.131	50.09
611.471	50.64
611.81	51.17
612.149	51.66
612.488	52.13
612.828	52.65
613.167	53.27
613.506	53.83
613.845	54.33
614.184	54.83
614.523	55.31
614.862	55.77
615.201	56.31
615.539	56.77
615.878	57.3
616.217	57.8
616.556	58.2
616.894	58.74
617.233	59.12
617.571	59.54
617.91	59.94
618.248	60.26
618.587	60.61
618.925	60.99
619.264	61.37
619.602	61.74
619.94	62.07
620.278	62.3
620.617	62.54
620.955	62.93
621.293	63.24
621.631	63.61
621.969	63.91
622.307	64.21
622.645	64.51
622.983	64.84
623.32	65.08
623.658	65.45
623.996	65.64
624.334	65.94
624.671	66.2
625.009	66.46
625.346	66.77
625.684	67.17
626.021	67.3
626.359	67.58
626.696	67.68
627.033	67.96
627.371	68.26
627.708	68.56
628.045	68.78
628.382	69.06
628.719	69.16
629.056	69.43
629.394	69.64
629.73	69.87
630.067	70.06
630.404	70.15
630.741	70.24
631.078	70.49
631.415	70.65
631.751	70.88
632.088	71.05
632.425	71.15
632.761	71.23
633.098	71.49
633.434	71.61
633.771	71.93
634.107	72.08
634.443	72.15
634.78	72.23
635.116	72.31
635.452	72.33
635.788	72.46
636.124	72.53
636.46	72.69
636.797	72.86
637.133	72.86
637.468	73.11
637.804	73.37
638.14	73.57
638.476	73.83
638.812	73.98
639.147	74.05
639.483	74.27
639.819	74.37
640.154	74.46
640.49	74.51
640.825	74.63
641.161	74.75
641.496	74.98
641.832	75.1
642.167	75.39
642.502	75.7
642.837	75.96
643.172	75.93
643.508	76.01
643.843	76.07
644.178	76.25
644.513	76.35
644.848	76.39
645.183	76.38
645.517	76.39
645.852	76.45
646.187	76.68
646.522	76.85
646.856	76.94
647.191	76.97
647.526	77.14
647.86	77.16
648.195	77.15
648.529	77.11
648.863	77.23
649.198	77.13
649.532	77.18
649.866	77.17
650.201	77.38
650.535	77.42
650.869	77.46
651.203	77.55
651.537	77.59
651.871	77.57
652.205	77.58
652.539	77.64
652.873	77.66
653.206	77.65
653.54	77.48
653.874	77.45
654.208	77.56
654.541	77.6
654.875	77.79
655.208	77.94
655.542	78.05
655.875	78.13
656.209	78.21
656.542	78.18
656.875	78.28
657.208	78.29
657.542	78.34
657.875	78.43
658.208	78.48
658.541	78.59
658.874	78.69
659.207	78.77
659.54	78.76
659.873	78.87
660.206	78.89
660.538	78.95
660.871	78.98
661.204	78.94
661.536	78.95
661.869	78.91
662.202	78.84
662.534	78.83
662.867	78.81
663.199	78.74
663.531	78.75
663.864	78.62
664.196	78.7
664.528	78.67
664.86	78.63
665.193	78.67
665.525	78.44
665.857	78.46
666.189	78.45
666.521	78.46
666.853	78.46
667.184	78.38
667.516	78.47
667.848	78.56
668.18	78.68
668.511	78.7
668.843	78.68
669.175	78.66
669.506	78.55
669.838	78.62
670.169	78.78
670.5	78.83
670.832	78.85
671.163	78.72
671.494	78.77
671.826	78.77
672.157	78.79
672.488	79
672.819	78.98
673.15	78.98
673.481	78.95
673.812	78.79
674.143	78.98
674.473	79.05
674.804	78.87
675.135	78.8
675.466	78.58
675.796	78.46
676.127	78.5
676.457	78.66
676.788	78.69
677.118	78.64
677.449	78.58
677.779	78.56
678.109	78.6
678.44	78.47
678.77	78.3
679.1	78.34
679.43	78.38
679.76	78.44
680.09	78.45
680.42	78.5
680.75	78.61
681.08	78.64
681.41	78.55
681.74	78.61
682.07	78.61
682.399	78.7
682.729	78.8
683.059	78.79
683.388	78.86
683.718	78.81
684.047	78.89
684.376	79
684.706	79.08
685.035	79.11
685.364	79.15
685.694	79.51
686.023	79.44
686.352	79.48
686.681	79.42
687.01	79.47
687.339	79.47
687.668	79.41
687.997	79.41
688.326	79.59
688.655	79.66
688.983	79.79
689.312	80.03
689.641	80.13
689.969	80.32
690.298	80.25
690.626	80.22
690.955	80.12
691.283	80.12
691.612	80.06
691.94	80.04
692.268	80.16
692.596	79.85
692.925	79.88
693.253	79.83
693.581	79.66
693.909	79.65
694.237	79.67
694.565	79.99
694.893	79.97
695.22	79.77
695.548	79.76
695.876	79.79
696.204	79.93
696.531	79.78
696.859	79.69
697.186	79.68
697.514	79.76
697.841	79.87
698.169	79.89
698.496	80.1
698.823	80.09
699.151	80.17
699.478	80.4
699.805	80.29
700.132	80.43
700.459	80.69
700.786	80.62
701.113	80.69
701.44	80.45
701.767	80.55
702.094	80.87
702.421	80.93
702.747	80.82
703.074	80.78
703.401	81.02
703.727	81.01
704.054	81.14
704.38	81.01
704.707	81.13
705.033	81.06
705.359	80.85
705.686	80.77
706.012	80.6
706.338	80.71
706.664	81.01
706.99	80.87
707.317	80.79
707.643	80.88
707.968	80.85
708.294	81.02
708.62	80.65
708.946	80.34
709.272	80.32
709.598	80.44
709.923	80.35
710.249	80.18
710.574	80.4
710.9	80.26
711.225	80.41
711.551	80.34
711.876	80.51
712.201	80.59
712.527	80.78
712.852	80.94
713.177	80.68
713.502	80.51
713.827	80.51
714.152	80.64
714.477	80.55
714.802	80.75
715.127	80.82
715.452	80.92
715.777	80.99
716.101	81.15
716.426	81.29
716.751	81.33
717.075	81.48
717.4	81.33
717.724	81.38
718.049	81.42
718.373	81.19
718.698	81.01
719.022	81.04
719.346	81.23
719.67	81.46
719.994	81.49
720.318	81.58
720.643	81.66
720.967	81.48
721.29	81.7
721.614	81.52
721.938	81.48
722.262	81.76
722.586	81.84
722.909	81.7
723.233	81.52
723.557	81.4
723.88	81.27
724.204	81.25
724.527	81.34
724.851	81.08
725.174	81
725.497	81.18
725.82	81.18
726.144	81.11
726.467	80.92
726.79	80.87
727.113	80.85
727.436	80.75
727.759	81.05
728.082	80.88
728.405	80.73
728.728	80.72
729.05	80.44
729.373	80.27
729.696	80.26
730.018	80.26
730.341	80.2
730.663	80.22
730.986	80.05
731.308	80.18
731.631	80.16
731.953	80.33
732.275	80.09
732.597	80.13
732.919	79.99
733.242	79.94
733.564	80.14
733.886	80.11
734.208	79.95
734.529	79.83
734.851	80.06
735.173	80.06
735.495	80.09
735.817	80.21
736.138	80.19
736.46	80.02
736.781	79.94
737.103	80.21
737.424	80.2
737.746	80.44
738.067	80.19
738.388	80.35
738.71	80.34
739.031	80.4
739.352	80.36
739.673	80.39
739.994	80.46
740.315	80.32
740.636	80.18
740.957	80.25
741.278	79.92
741.599	79.58
741.919	79.42
742.24	79.18
742.561	79.05
742.881	78.94
743.202	79.03
743.522	78.92
743.843	78.6
744.163	78.58
744.484	78.64
744.804	78.84
745.124	78.64
745.444	78.93
745.765	79.24
746.085	79.18
746.405	79.06
746.725	79.27
747.045	79.33
747.364	79.3
747.684	79.56
748.004	79.65
748.324	79.91
748.644	79.94
748.963	80.26
749.283	80.37
749.602	80.65
749.922	80.82
750.241	81.04
750.561	81.53
750.88	81.51
751.199	81.19
751.518	81.15
751.838	81.37
752.157	81.23
752.476	81.21
752.795	81.32
753.114	81.49
753.433	81.49
753.752	81.44
754.07	81.59
754.389	81.15
754.708	81.09
755.027	80.99
755.345	81
755.664	80.86
755.982	81.06
756.301	80.68
756.619	80.62
756.938	80.93
757.256	80.68
757.574	80.68
757.892	80.85
758.21	80.9
758.529	81.06
758.847	81.08
759.165	80.8
759.483	81.06
759.8	80.87
760.118	80.81
760.436	81.08
760.754	81.1
761.072	81.27
761.389	81.5
761.707	81.53
762.024	81.6
762.342	81.56
762.659	81.27
762.977	81.54
763.294	81.65
763.611	81.28
763.928	81.03
764.246	81.14
764.563	81.01
764.88	81.02
765.197	80.59
765.514	80.54
765.831	80.65
766.148	80.45
766.464	80.71
766.781	80.56
767.098	80.25
767.415	80.25
767.731	80.28
768.048	80.22
768.364	80.38
768.681	80.24
768.997	80.31
769.314	80.12
769.63	79.95
769.946	79.74
770.262	79.9
770.578	80.24
770.894	80.09
771.211	80.07
771.527	79.71
771.842	79.95
772.158	80
772.474	79.97
772.79	79.64
773.106	79.32
773.421	79.33
773.737	79.33
774.053	79.53
774.368	79.68
774.684	79.3
774.999	78.87
775.314	78.78
775.63	78.7
775.945	79.19
776.26	79.21
776.575	79.33
776.89	79.1
777.205	79.03
777.52	79.21
777.835	78.99
778.15	78.94
778.465	79.57
778.78	79.15
779.095	78.84
779.409	78.89
779.724	78.61
780.038	79.06
780.353	79.12
780.667	79.36
780.982	79.14
781.296	79.43
781.611	79.22
781.925	79.45
782.239	79.42
782.553	79.31
782.867	78.92
783.181	78.73
783.495	78.84
783.809	78.38
784.123	78.12
784.437	78.44
784.751	79.03
785.065	78.2
785.378	78.62
785.692	78.73
786.005	79.05
786.319	79.18
786.632	78.4
786.946	78.61
787.259	77.58
787.573	77.43
787.886	77.66
788.199	77.99
788.512	78.26
788.825	78.8
789.138	79.16
789.451	79.57
789.764	79.53
790.077	79.65
790.39	80.02
790.703	80.12
791.015	80.04
791.328	79.84
791.641	80.07
791.953	80.31
792.266	80.73
792.578	79.57
792.891	79.78
793.203	80.32
793.515	80.06
793.828	80.42
794.14	80.56
794.452	80.62
794.764	80.63
795.076	80.42
795.388	79.51
795.7	79.18
796.012	79.48
796.324	79.35
796.636	79.22
796.947	78.75
797.259	78.43
797.571	79.38
797.882	79.16
798.194	78.86
798.505	78.01
798.816	77.74
799.128	78.88
799.439	78.41
799.75	78.15
800.062	78.35
800.373	78.95
800.684	79.13
800.995	78.8
801.306	78.9
801.617	79.1
801.928	79.84
802.238	79.88
802.549	78.9
802.86	78.81
803.17	78.72
803.481	78.65
803.792	79.55
804.102	78.69
804.413	77.94
804.723	78.87
805.033	79.51
805.343	79.5
805.654	79.08
805.964	79.22
806.274	79.19
806.584	79.37
806.894	78.68
807.204	78.75
807.514	78.44
807.824	77.95
808.134	77.54
808.443	77.21
808.753	77.09
809.063	77.3
809.372	77.03
809.682	76.82
809.991	77.54
810.301	76.14
810.61	75.99
810.919	77.06
811.228	76.15
811.538	76.23
811.847	76.84
812.156	76.45
812.465	77.19
812.774	77.29
813.083	76.87
813.392	77.24
813.7	77.41
814.009	77.3
814.318	77.24
814.627	77.69
814.935	78.31
815.244	78.6
815.552	78.54
815.861	79.74
816.169	80.22
816.477	79.81
816.786	80.23
817.094	80.21
817.402	80.5
817.71	80.59
818.018	80.09
818.326	79.96
818.634	80.43
818.942	79.57
819.25	79.89
819.558	80.13
819.865	80.36
820.173	80.83
820.481	81.1
820.788	81.82
821.096	82.11
821.403	82.06
821.711	82.18
822.018	82.29
822.325	82.05
822.632	82.03
822.94	82.28
823.247	82.53
823.554	82.6
823.861	82.95
824.168	83.11
824.475	83.03
824.781	82.83
825.088	83.04
825.395	83.56
825.702	83.79
826.008	84.13
826.315	84.2
826.621	83.96
826.928	84.27
827.234	84.05
827.541	83.49
827.847	83.49
828.153	83.36
828.459	83.57
828.766	83.81
829.072	84.05
829.378	83.69
829.684	83.57
829.99	83.64
830.295	82.07
830.601	81.66
830.907	81.92
831.213	82.11
831.518	81.05
831.824	80.16
832.129	79.53
832.435	79.27
832.74	79.69
833.046	80.03
833.351	79.49
833.656	79.04
833.961	79.73
834.267	79.65
834.572	79.92
834.877	79.74
835.182	79.42
835.487	79.31
835.791	78.87
836.096	78.33
836.401	77.99
836.706	78.72
837.01	78.8
837.315	78.44
837.619	78.13
837.924	78.8
838.228	79.03
838.533	79.19
838.837	78.51
839.141	78.77
839.445	78.71
839.75	78.4
840.054	78.3
840.358	76.72
840.662	76.12
840.966	74.4
841.269	74.11
841.573	74.74
841.877	74.26
842.181	74.28
842.484	74.21
842.788	74.94
843.091	75.33
843.395	75.09
843.698	75.12
844.002	75.84
844.305	76
844.608	74.67
844.911	73.5
845.215	73.44
845.518	72.12
845.821	70.61
846.124	70.92
846.427	71.66
846.729	71.94
847.032	72.67
847.335	73.61
847.638	72.92
847.94	73.47
848.243	73.4
848.545	72.8
848.848	74.51
849.15	74.58
849.453	74.47
849.755	75.47
850.057	76.1
850.359	75.92
850.661	74.85
850.963	76.61
851.265	78.19
851.567	80.26
851.869	78.86
852.171	77.41
852.473	75.69
852.775	75.27
853.076	75.19
853.378	73.79
853.68	75.38
853.981	76.93
854.282	76.15
854.584	76.43
854.885	78.1
855.186	77.34
855.488	77.55
855.789	75.97
856.09	74.81
856.391	75.52
856.692	75.06
856.993	77.49
857.294	76.93
857.595	74.94
857.895	74.17
858.196	75.94
858.497	78.37
858.797	78.96
859.098	78.17
859.398	77.99
859.699	77.58
859.999	76.02
860.3	74.85
860.6	73.98
860.9	73.78
861.2	73.97
861.5	74.64
861.8	73.15
862.1	74.51
862.4	74.48
862.7	74.46
863	71.51
863.3	67.21
863.599	66.94
863.899	67.3
864.198	65.18
864.498	64.56
864.797	65.78
865.097	65.65
865.396	66.24
865.695	68.87
865.995	70.34
866.294	71.33
866.593	72.5
866.892	72.96
867.191	74.48
867.49	76.06
867.789	76.84
868.088	76.21
868.386	76.33
868.685	77.68
868.984	76.89
869.282	81.38
869.581	87.29
869.879	87.67
870.178	90.19
870.476	93.98
870.775	92.38
871.073	89.22
871.371	91.17
871.669	89.6
871.967	86.86
872.265	85
872.563	84.35
872.861	84.36
873.159	84.67
873.457	83.88
873.755	81.74
874.052	79.2
874.35	80.18
874.647	79.52
874.945	79.53
875.242	77.12
875.54	75.47
875.837	71.58
876.134	72.08
876.432	71.29
876.729	70.59
877.026	71.34
877.323	72.24
877.62	73.25
877.917	75.24
878.214	78.83
878.511	79.97
878.807	77.86
879.104	78.59
879.401	78.53
879.697	77.94
879.994	78.42
880.29	79.82
880.587	80.25
880.883	80.32
881.179	80.31
881.475	81.59
881.772	82.43
882.068	82.81
882.364	82.63
882.66	82.53
882.956	82.33
883.252	82.83
883.548	82.99
883.843	82.55
884.139	82.33
884.435	82.46
884.73	82.86
885.026	83.43
885.321	83.2
885.617	83.08
885.912	84.25
886.207	84.88
886.503	83.06
886.798	82.66
887.093	82.16
887.388	80.91
887.683	79.85
887.978	77.07
888.273	77.04
888.568	76.12
888.862	75.51
889.157	75.72
889.452	73.19
889.746	73.11
890.041	73.14
890.335	74.01
890.63	69.92
890.924	67.28
891.219	67.61
891.513	66.75
